Значения потенциалов выражены в мкВ. Частота дискретизации (Гц):
100
Длительность фрагмента (сек):
351
Количество экспортированных сэмплов по каждому отведению:
35096

#I
6000;5299;4809;4059;3557;2847;2360;1602;1125;393;-67;-77;-98;-99;-88;-86;-66;-66;-75;-64;-33;-11;11;2;-11;-50;-66;-61;-84;-77;-71;-53;142;477;310;-116;-114;-63;-75;-70;-75;-85;-83;-70;-65;-62;-44;-39;-29;-23;-7;-3;36;60;65;73;90;103;100;90;69;46;-6;-40;-65;-68;-74;-88;-106;-107;-93;-82;-83;-80;-80;-76;-85;-80;-70;-64;-68;-73;-63;-70;-70;-71;-75;-74;-78;-73;-58;-69;-67;-62;-68;-56;-53;-52;-53;-63;-64;-49;-33;-41;-31;-19;19;44;22;-20;-37;-51;-50;-64;-26;-33;74;383;440;102;-74;-71;-24;-42;-47;-53;-56;-37;-26;-12;-6;-6;0;6;31;29;50;76;93;114;128;132;139;121;124;93;52;9;-12;-28;-45;-54;-66;-65;-55;-52;-46;-41;-44;-39;-38;-46;-54;-47;-41;-58;-46;-45;-62;-60;-48;-50;-51;-50;-50;-63;-65;-66;-60;-49;-39;-41;-34;-21;-14;30;28;33;14;-5;-31;-35;-39;-55;-39;-13;132;402;282;-118;-110;-48;-57;-47;-45;-41;-32;-25;-24;-13;-10;-16;11;14;17;42;69;83;111;121;135;141;140;136;116;72;27;-17;-46;-47;-66;-74;-75;-78;-79;-79;-73;-50;-59;-66;-61;-60;-49;-41;-51;-65;-71;-64;-50;-42;-53;-71;-77;-69;-57;-60;-63;-59;-56;-50;-52;-57;-45;-23;-8;19;21;0;-39;-63;-39;-62;-52;-51;-37;208;447;229;-154;-94;-54;-70;-66;-69;-73;-71;-68;-53;-37;-34;-34;-25;-12;0;7;31;55;90;94;93;100;104;102;79;31;2;-36;-50;-56;-83;-88;-76;-70;-72;-67;-70;-67;-57;-57;-56;-56;-48;-57;-71;-76;-68;-55;-46;-51;-56;-58;-62;-58;-59;-60;-55;-45;-47;-51;-39;-44;-31;-7;6;22;38;22;-26;-48;-124;-28;-42;-26;26;311;544;212;17;-59;-120;-73;-48;-68;-48;-45;-39;-25;-34;-27;1;4;5;22;46;56;83;99;113;129;131;131;113;81;43;7;-11;-34;-43;-61;-61;-49;-53;-62;-64;-65;-59;-58;-57;-48;-46;-44;-46;-53;-55;-47;-40;-34;-48;-43;-46;-49;-49;-54;-53;-50;-39;-43;-39;-33;-26;-30;-9;37;31;38;33;-5;-25;-33;-21;-37;-34;-37;106;471;476;6;-55;-36;-28;-45;-43;-37;-29;-30;-15;-6;-19;-4;9;23;30;34;64;93;98;119;149;146;141;138;126;87;50;4;-16;-35;-41;-48;-40;-53;-48;-45;-43;-51;-32;-29;-31;-29;-21;-21;-26;-30;-48;-38;-30;-36;-37;-39;-49;-64;-50;-45;-45;-35;-25;-16;-15;-26;-14;-3;31;32;39;38;0;-13;-19;-14;-39;-27;-26;77;360;460;89;-135;-58;-36;-40;-47;-30;-28;-24;-15;-9;-17;-3;22;44;47;48;61;91;114;119;141;155;159;155;132;83;45;0;-49;-53;-60;-79;-84;-71;-63;-65;-59;-44;-51;-64;-50;-54;-65;-64;-54;-58;-70;-65;-73;-73;-60;-51;-65;-60;-50;-61;-64;-57;-46;-52;-52;-50;-59;-33;3;2;12;26;-10;-44;-52;-53;-96;-66;-48;-13;229;442;207;-193;-77;-46;-66;-41;-48;-66;-66;-60;-52;-47;-30;-19;-17;-6;6;19;30;63;92;101;114;127;115;102;73;42;-13;-39;-55;-76;-81;-79;-77;-76;-76;-74;-74;-80;-81;-77;-73;-65;-66;-69;-69;-65;-69;-69;-69;-72;-75;-78;-79;-73;-84;-80;-83;-69;-70;-76;-70;-61;-53;-58;-51;-31;12;24;12;-13;-48;-70;-34;-74;-49;-47;-23;209;518;295;-155;-76;-38;-72;-95;-86;-60;-54;-58;-61;-41;-42;-34;-15;-14;6;21;29;42;71;94;103;108;103;108;87;32;0;-25;-41;-53;-86;-85;-68;-73;-72;-70;-64;-61;-57;-58;-61;-55;-45;-47;-50;-53;-48;-42;-47;-53;-37;-31;-37;-34;-31;-52;-52;-50;-47;-49;-42;-34;-32;-21;-9;27;28;43;39;11;-30;-33;-25;-22;-22;-46;58;330;541;177;-7;-48;-38;-46;-58;-46;-41;-34;-19;-1;1;-16;11;16;38;54;76;90;100;124;151;157;160;160;159;109;71;30;-2;-18;-35;-24;-39;-41;-51;-32;-40;-45;-40;-31;-31;-27;-19;-11;-3;-14;-25;-28;-19;-28;-40;-29;-15;-16;-18;-23;-26;-18;-18;-12;-21;-31;-14;-10;5;44;48;45;44;12;-7;1;-1;-8;-4;20;118;360;350;25;-120;-34;-48;-34;-20;0;-12;-9;-2;18;4;2;14;33;48;60;77;97;118;157;162;159;160;155;162;111;55;27;-11;-25;-41;-51;-55;-53;-49;-37;-30;-33;-40;-40;-39;-40;-39;-33;-23;-14;-23;-38;-42;-45;-36;-41;-47;-44;-30;-23;-24;-39;-37;-42;-41;-16;-31;-17;4;39;41;44;23;-16;-28;-15;-32;-38;-24;-22;143;441;309;-82;-112;-46;-42;-18;-38;-39;-47;-37;-20;-20;-7;6;-2;0;15;43;53;74;94;107;125;140;142;135;115;69;30;-2;-23;-33;-32;-46;-34;-44;-41;-53;-52;-52;-43;-40;-50;-56;-56;-45;-45;-44;-41;-38;-48;-45;-52;-47;-47;-47;-46;-48;-54;-59;-57;-46;-43;-38;-29;-27;-43;-10;15;31;62;49;-7;-29;-30;-21;-36;-34;-5;99;444;446;65;-61;-61;-49;-36;-49;-45;-40;-24;-31;-28;-17;-11;-2;7;34;43;49;67;89;106;102;117;130;123;114;82;41;7;-6;-8;-23;-31;-38;-44;-48;-51;-47;-50;-56;-53;-42;-50;-50;-42;-29;-33;-31;-25;-34;-38;-38;-45;-35;-24;-25;-24;-22;-23;-32;-36;-35;-25;-23;-24;-19;-15;-8;40;57;53;23;-6;-27;9;-18;-25;-29;14;218;514;322;-99;-62;-7;-11;-23;-36;-30;-21;-30;-29;-24;20;26;23;22;47;61;71;92;111;140;149;164;147;148;121;77;47;10;-16;-23;-24;-33;-38;-42;-41;-35;-41;-39;-19;-25;-24;-31;-19;-18;-17;-18;-18;-23;-29;-30;-25;-16;-18;-25;-16;-8;-12;-25;-23;-20;-24;-8;-5;7;23;54;68;62;21;-1;0;6;-9;-20;3;5;181;438;296;-68;-85;-19;-14;0;-21;2;1;0;2;5;7;23;32;57;59;73;90;110;135;162;151;153;159;145;146;88;45;-1;-21;-40;-64;-60;-60;-65;-63;-61;-54;-52;-57;-53;-50;-44;-38;-46;-48;-53;-54;-48;-56;-58;-62;-58;-54;-64;-65;-59;-56;-52;-39;-41;-32;-29;-16;7;26;30;-11;-35;-48;-64;-42;-60;-69;-4;193;435;179;-226;-97;-51;-68;-61;-67;-65;-58;-50;-46;-40;-30;-20;-11;-15;3;20;40;60;70;108;117;114;118;115;65;39;-3;-43;-60;-77;-75;-85;-68;-76;-73;-65;-72;-71;-58;-58;-62;-66;-70;-72;-74;-76;-80;-83;-91;-81;-73;-69;-83;-85;-87;-101;-93;-99;-98;-103;-110;-92;-73;-69;-33;-43;-52;-103;-123;-92;-122;-118;-101;-58;197;374;113;-224;-163;-120;-123;-121;-116;-121;-119;-110;-101;-106;-98;-84;-71;-51;-55;-40;-22;-3;29;46;51;50;48;49;21;-11;-48;-89;-88;-115;-126;-116;-112;-125;-116;-109;-108;-106;-106;-106;-105;-105;-112;-104;-105;-103;-105;-112;-108;-116;-114;-125;-108;-113;-110;-118;-129;-119;-122;-110;-103;-87;-72;-49;-64;-86;-89;-97;-90;-117;-102;-92;-39;180;341;-6;-246;-127;-92;-105;-96;-83;-84;-85;-76;-68;-66;-55;-33;-23;-22;4;13;29;50;62;80;105;91;96;91;62;27;-10;-56;-48;-53;-49;-68;-95;-95;-68;-56;-62;-55;-46;-35;-32;-12;-33;-58;-1;-28;-24;-32;-18;-49;-48;-26;-4;-21;-35;-23;-22;-3;-2;6;29;46;54;23;-30;-28;-24;-31;-36;-4;18;158;326;70;-225;-100;-54;-67;-45;-15;-4;-24;-8;-6;-6;-5;7;20;25;25;35;56;69;85;96;109;106;109;110;58;8;-8;-46;-63;-73;-84;-89;-90;-86;-93;-98;-90;-93;-122;-106;-102;-116;-106;-102;-113;-101;-115;-129;-145;-138;-114;-154;-133;-132;-150;-139;-135;-145;-135;-141;-145;-128;-96;-69;-76;-96;-136;-153;-167;-147;-143;-134;-107;55;295;90;-259;-205;-156;-166;-147;-146;-147;-153;-134;-138;-132;-120;-110;-100;-97;-74;-71;-43;-40;-35;-3;8;16;11;10;-2;-40;-60;-91;-104;-112;-123;-119;-117;-116;-98;-97;-101;-103;-105;-100;-89;-78;-81;-87;-85;-90;-67;-78;-85;-78;-84;-70;-62;-68;-82;-65;-62;-64;-54;-48;-46;-45;-49;-44;-40;-26;34;30;36;9;-30;-22;-33;-37;-31;-25;13;240;401;146;-121;-58;-11;-32;-22;-21;-17;-15;-12;-27;5;23;19;21;28;42;69;81;94;114;124;139;138;150;152;122;88;64;27;21;4;-4;-14;-20;0;0;-12;-4;20;26;21;12;24;30;29;37;31;24;24;24;17;7;11;25;31;37;38;36;37;37;44;46;47;51;45;71;65;71;82;111;145;136;128;95;81;97;66;78;80;84;228;421;349;43;-30;58;62;78;84;82;92;99;104;122;124;107;125;137;147;159;182;191;206;225;241;246;248;240;231;189;157;122;97;73;59;50;41;45;58;60;49;32;64;73;63;57;49;56;56;52;44;48;43;45;54;40;34;47;45;38;29;34;38;27;24;41;39;31;44;44;71;94;97;104;78;59;41;18;7;46;45;113;285;286;109;-105;-39;26;24;49;34;29;32;48;35;42;45;55;62;69;74;105;112;118;137;147;159;173;173;157;132;94;52;11;5;-7;-16;-23;-24;-22;-18;0;-9;-19;-15;-6;-7;-9;-7;-13;-4;-16;-19;-18;-30;-34;-33;-39;-37;-26;-29;-51;-29;-15;-34;-39;-34;-41;-34;-24;-20;-8;4;35;34;10;-26;-33;-17;-20;-18;-14;56;288;327;32;-49;-70;-66;-63;-30;-31;-53;-62;-48;-33;-28;-28;-9;5;5;3;14;29;36;52;67;84;91;73;70;56;18;-29;-34;-45;-47;-49;-49;-57;-68;-72;-74;-60;-45;-41;-53;-58;-45;-54;-65;-50;-41;-51;-40;-32;-38;-44;-49;-52;-60;-53;-52;-51;-50;-44;-46;-46;-46;-30;-28;5;14;41;21;-2;-24;-39;-42;-39;-37;-20;96;372;376;-14;-45;-66;-84;-50;-54;-48;-47;-32;-45;-34;-12;-5;5;1;-7;11;25;40;52;64;104;94;75;72;87;67;25;1;-17;-31;-45;-35;-67;-46;-48;-49;-40;-18;-14;-23;-34;-20;-12;-18;-4;0;7;-8;-9;-4;-10;-11;-5;0;-11;-28;-21;-16;-16;-11;-6;-4;6;23;69;64;68;52;8;-8;-2;-14;0;10;20;234;427;160;-132;-67;-22;-7;0;-6;22;21;13;17;22;35;45;49;57;74;86;98;119;129;141;162;163;143;143;122;83;48;28;-18;-24;-41;-46;-34;-33;-37;-32;-16;-9;-27;-33;-30;-26;-34;-35;-35;-35;-35;-34;-34;-32;-33;-37;-36;-29;-28;-35;-25;-32;-25;-23;22;24;31;26;1;-20;-26;-25;-37;-32;-18;36;222;390;7;-98;-108;-53;-41;-37;-25;-17;-20;-18;-21;-3;1;5;11;18;27;55;76;78;99;110;122;123;125;104;85;45;-24;-44;-52;-58;-73;-65;-63;-68;-58;-57;-55;-41;-63;-59;-66;-54;-47;-54;-47;-39;-47;-60;-62;-50;-48;-56;-56;-55;-49;-50;-59;-53;-38;-10;14;17;12;-9;-57;-50;-55;-52;-42;-29;42;277;373;6;-123;-87;-56;-40;-53;-51;-47;-42;-31;-18;-12;-5;-13;-12;-2;4;30;42;47;67;90;104;95;97;89;63;24;-11;-28;-43;-45;-44;-51;-70;-67;-60;-52;-51;-51;-52;-42;-36;-44;-46;-45;-31;-32;-34;-33;-27;-31;-34;-45;-42;-31;-33;-32;-30;-25;-22;14;17;10;46;22;-14;-25;-31;-30;-19;-9;74;340;455;36;-106;-35;-35;-26;-28;-3;8;-9;-4;-1;12;25;31;24;24;44;57;79;91;117;126;137;132;129;120;85;64;17;-1;0;-6;-10;-13;-20;-28;-31;-30;-28;-25;-2;3;2;12;5;-3;0;3;-5;-9;-22;-12;-12;-22;-6;-3;-4;-11;-9;4;26;31;47;70;73;62;21;5;12;32;-12;14;33;221;455;223;-164;-43;12;9;12;0;0;7;19;33;43;49;55;56;22;71;99;119;138;145;174;172;182;182;181;155;109;45;8;5;-14;-21;-19;-21;-16;-15;-6;-8;-3;-9;-11;1;-9;-22;-19;-13;-17;-16;-26;-27;-26;-20;-18;-18;-8;-22;-24;-33;-24;-13;1;19;54;48;55;32;1;-5;-15;-25;-20;0;20;156;363;132;-164;-111;-30;-29;-24;-13;-6;-15;-2;5;3;5;25;21;28;32;55;73;89;118;126;139;148;150;137;106;65;21;-11;-23;-49;-56;-58;-69;-72;-64;-56;-59;-64;-55;-54;-58;-48;-46;-31;-34;-38;-45;-43;-44;-45;-43;-53;-57;-56;-52;-44;-43;-31;-32;-45;-30;-25;-15;16;30;36;32;-3;-21;-34;-38;-30;-33;-31;133;387;249;-81;-81;-47;-51;-43;-41;-31;-26;-26;-19;-13;-25;0;7;5;7;24;43;50;80;89;94;110;118;111;92;57;24;-7;-33;-37;-77;-65;-57;-54;-61;-60;-57;-50;-39;-35;-44;-42;-36;-47;-58;-62;-56;-61;-64;-42;-48;-51;-51;-50;-51;-53;-53;-49;-39;-35;-46;-31;-35;-42;-20;2;16;44;52;6;-38;-30;-37;-41;-41;-30;72;354;364;29;-113;-66;-108;-67;-69;-52;-46;-40;-32;-18;-26;-13;-14;-5;15;25;42;61;63;82;92;102;128;128;108;74;39;-2;-25;-38;-51;-68;-80;-59;-47;-45;-42;-33;-39;-44;-50;-48;-53;-45;-50;-51;-40;-41;-48;-51;-54;-57;-40;-23;-77;-64;-44;-53;-38;-25;-39;-36;-35;-31;-38;-14;16;17;27;48;32;-13;-30;-35;-45;-37;-38;-37;77;329;333;-19;-152;-74;-84;-64;-59;-51;-49;-46;-39;-23;-27;-22;-16;7;20;21;34;53;76;90;113;114;126;123;108;75;38;0;-30;-39;-47;-69;-64;-58;-54;-51;-53;-43;-34;-31;-44;-31;-26;-29;-32;-36;-47;-47;-38;-29;-41;-42;-41;-34;-26;-9;-13;-23;-37;-32;-18;-21;-17;-4;-2;7;12;40;57;53;10;-8;-14;-15;-21;-13;2;103;270;233;-51;-152;-63;0;-43;-27;-14;-27;-5;0;-6;2;2;18;23;36;57;60;93;97;122;133;167;163;138;130;104;46;7;-26;-36;-50;-71;-74;-58;-57;-61;-59;-49;-36;-40;-59;-46;-39;-32;-35;-35;-34;-53;-59;-51;-49;-44;-48;-46;-46;-49;-42;-50;-50;-48;-36;-15;-42;-37;-33;-9;18;29;33;31;-21;-31;-21;-40;-52;-35;-6;129;350;255;-90;-142;-58;-58;-50;-46;-47;-50;-37;-29;-24;-14;-1;-2;-2;9;22;41;60;78;93;103;114;101;104;89;57;26;-23;-44;-59;-81;-85;-59;-48;-69;-69;-64;-59;-59;-44;-46;-48;-51;-64;-65;-63;-55;-47;-54;-62;-67;-77;-80;-60;-64;-56;-62;-62;-61;-52;-54;-41;-55;-49;-17;0;17;31;36;17;-23;-39;-66;-44;-49;-37;-17;101;422;282;-140;-112;-62;-58;-47;-53;-43;-44;-46;-28;-30;-29;-20;-12;-9;10;26;29;46;52;74;85;95;103;101;70;35;22;-6;-26;-50;-72;-60;-61;-57;-54;-55;-37;-46;-41;-26;-36;-60;-37;-29;-34;-38;-41;-36;-34;-47;-31;-32;-40;-43;-38;-43;-40;-45;-40;-36;-46;-39;-40;-33;-20;-1;28;35;41;26;-10;-32;-20;-10;-20;-12;37;268;272;146;-80;-73;-81;-29;-33;-20;-27;-20;-23;-15;-7;22;27;22;31;48;55;73;87;112;129;117;135;144;139;98;70;33;0;-14;-30;-38;-27;-27;-30;-34;-15;-31;-46;-22;-17;-24;-26;-29;-12;-12;-25;-25;-24;-33;-25;-19;-21;-29;-32;-32;-31;-19;-9;-9;-16;-7;-2;-14;31;42;46;50;15;-5;-7;-9;-13;-18;2;52;187;365;95;-230;-94;-5;-9;-22;-5;0;8;15;-6;17;16;19;31;47;53;63;78;102;129;150;167;165;158;160;122;73;25;2;-23;-44;-50;-55;-38;-59;-65;-68;-67;-56;-40;-40;-30;-24;-24;-34;-44;-49;-48;-58;-54;-59;-57;-40;-38;-72;-58;-53;-54;-63;-51;-43;-37;-37;-37;-5;20;30;16;-24;-35;-54;-59;-38;-38;-40;139;387;195;-178;-122;-48;-54;-51;-49;-46;-43;-28;-28;-28;-8;-9;1;8;9;24;40;55;74;87;107;120;119;113;95;55;20;-9;-42;-49;-69;-70;-55;-48;-52;-41;-45;-50;-57;-49;-43;-50;-37;-45;-62;-62;-60;-56;-32;-32;-44;-43;-36;-39;-43;-36;-47;-52;-38;-48;-39;-27;-16;-6;17;38;33;9;-9;-24;-24;-33;-28;-2;36;245;284;148;-210;-78;-12;-32;-51;-43;-6;-19;-15;-15;-11;-5;0;12;16;32;33;50;70;83;104;123;115;127;105;88;54;18;-17;-25;-27;-47;-61;-62;-50;-46;-48;-49;-52;-44;-39;-46;-43;-32;-34;-29;-35;-43;-40;-34;-23;-35;-50;-46;-39;-32;-73;-61;-28;-30;-44;-25;-12;-20;-6;24;35;47;44;30;26;-19;-19;-19;-27;0;72;314;495;109;-61;-51;-60;-20;-54;-47;-45;-36;-21;10;16;-1;24;25;46;47;67;87;102;111;120;135;152;168;141;111;78;14;0;-16;-30;-39;-39;-43;-39;-29;-37;-37;-32;-19;-17;-17;-11;-3;-5;-15;-30;-18;-14;-12;-15;-18;-10;-25;-21;-23;-19;-9;-3;2;0;0;23;17;19;31;66;81;51;0;-7;-4;-1;7;8;35;195;359;130;-173;-80;14;24;13;15;25;19;23;32;30;47;41;51;66;87;91;127;147;141;173;191;196;194;214;151;103;66;29;-1;-29;-27;-23;-25;-25;-21;-40;-39;-40;-28;-23;-25;-30;-19;-16;-30;-23;-21;-19;-28;-36;-31;-28;-19;-42;-43;-26;-36;-31;-17;-21;3;38;27;41;28;-13;-22;-18;-5;-40;-32;-18;97;269;301;-43;-51;-41;-75;-48;-34;-43;-31;-13;-21;-27;-1;0;20;23;22;42;64;74;91;119;129;137;145;136;113;74;35;-4;-36;-58;-79;-71;-52;-80;-83;-64;-62;-61;-59;-63;-60;-52;-62;-64;-63;-66;-65;-55;-70;-75;-79;-68;-34;-46;-68;-63;-42;-40;-51;-59;-37;-32;5;19;51;35;-21;-43;-42;-47;-22;-44;-15;66;306;302;-10;-144;-84;-59;-59;-60;-52;-54;-50;-46;-31;-23;-39;-28;-6;9;9;20;43;56;82;98;107;132;110;98;72;23;-20;-39;-56;-69;-85;-66;-67;-83;-86;-82;-72;-56;-52;-62;-61;-64;-48;-62;-63;-54;-58;-63;-60;-51;-58;-58;-53;-46;-37;-47;-51;-52;-50;-41;-23;-30;19;24;11;-55;-44;-46;-38;-61;-41;-15;177;443;227;-155;-92;-41;-62;-57;-60;-50;-57;-46;-36;-31;-13;-11;-7;0;-1;16;36;51;64;98;94;104;108;105;79;51;23;-14;-51;-63;-72;-74;-56;-51;-55;-64;-61;-58;-49;-53;-56;-47;-55;-58;-47;-64;-61;-48;-45;-52;-57;-45;-40;-35;-38;-37;-33;-41;-47;-43;-42;-32;-16;31;38;-12;4;-19;-42;-22;-29;-35;-23;4;156;457;285;-139;-98;-34;-51;-46;-48;-30;-41;-19;-13;-16;2;-1;5;19;34;43;52;77;92;118;119;123;154;133;111;65;26;-15;-26;-40;-49;-34;-57;-61;-50;-43;-49;-60;-57;-53;-35;-44;-51;-47;-39;-44;-45;-39;-46;-36;-48;-51;-45;-39;-52;-46;-28;-36;-36;-36;-38;-26;2;35;33;35;11;-23;-21;-38;-36;-18;-14;2;169;377;174;-193;-102;-19;-41;-35;-18;-23;-35;-19;-8;-9;-6;-7;13;3;18;54;64;78;94;110;127;135;128;123;106;52;26;-9;-11;-48;-65;-70;-70;-46;-55;-69;-70;-69;-66;-58;-47;-35;-42;-42;-44;-45;-42;-45;-48;-51;-54;-60;-55;-51;-53;-55;-53;-44;-42;-32;-9;12;54;33;-9;-50;-64;-45;-40;-43;-44;46;297;388;-2;-60;-52;-25;-65;-61;-41;-28;-23;-16;-7;-20;-24;-8;1;10;51;52;64;87;89;95;100;115;119;105;73;31;-11;-29;-37;-43;-51;-48;-63;-50;-35;-46;-61;-61;-50;-36;-31;-55;-46;-45;-46;-43;-53;-51;-33;-36;-47;-50;-37;-25;-16;-4;14;29;65;39;-26;-54;-20;-21;-45;-30;12;117;389;326;-81;-143;-45;-60;-46;-34;-15;-11;-8;-2;2;0;-2;12;18;38;47;56;65;96;106;118;130;129;132;96;51;20;-5;-31;-35;-32;-46;-61;-58;-59;-48;-43;-31;-33;-44;-49;-47;-42;-42;-42;-40;-48;-39;-46;-52;-52;-58;-50;-37;-32;-23;2;29;27;31;0;-17;-37;-19;-33;-32;-16;61;333;469;26;-102;-53;-39;-37;-43;-37;-34;-25;-19;-13;-6;-6;14;14;19;34;39;63;79;97;106;95;106;107;103;70;21;-4;-20;-47;-48;-50;-58;-63;-67;-53;-47;-52;-45;-34;-36;-46;-41;-26;-28;-47;-41;-43;-44;-40;-48;-34;-28;-34;-30;-27;-9;0;23;49;37;10;-21;-41;-26;-23;-11;-5;68;302;470;101;-126;-65;11;-43;-34;-18;-4;-3;12;6;1;12;13;29;41;57;62;79;98;122;125;139;141;136;118;102;61;12;-11;-34;-41;-38;-33;-36;-41;-46;-39;-29;-33;-47;-28;-18;-37;-39;-27;-22;-18;-25;-40;-15;2;-24;-16;-10;-22;-16;1;17;38;54;51;16;7;-20;-26;-23;-32;-8;89;264;408;25;-110;-74;-10;-20;-43;-19;-24;9;24;13;12;4;20;32;52;53;71;91;113;119;131;128;139;149;117;98;65;19;-8;-19;-39;-37;-29;-30;-34;-38;-37;-42;-26;-32;-32;-23;-18;-20;-26;-20;-32;-27;-24;-19;-27;-32;-30;-23;-35;-26;-16;13;22;40;41;7;-7;-15;-47;-66;-38;-4;99;281;419;61;-121;-85;-81;-31;-24;-28;-22;-16;-6;-9;-2;-8;0;23;37;40;44;66;87;90;103;121;121;125;107;85;44;0;-13;-38;-55;-39;-47;-34;-51;-56;-42;-53;-61;-39;-26;-33;-38;-37;-37;-39;-42;-51;-47;-39;-38;-48;-50;-49;-20;-35;-43;-2;47;28;31;28;-24;-38;-56;-42;-21;-25;-5;234;448;176;-146;-60;-38;-45;-31;-33;-34;-33;-28;-26;-19;-14;-12;6;13;21;37;64;72;82;90;96;96;109;80;67;48;9;-30;-46;-50;-62;-70;-59;-59;-70;-62;-45;-44;-51;-47;-42;-50;-61;-49;-50;-67;-70;-53;-51;-60;-58;-50;-56;-59;-57;-29;-36;-21;18;25;29;31;-34;-42;-39;-39;-34;-35;2;204;458;240;-137;-82;-24;-41;-36;-50;-38;-42;-38;-38;-17;-3;1;0;29;35;44;64;80;99;104;116;123;109;110;94;51;31;-26;-44;-59;-53;-51;-51;-40;-46;-45;-39;-35;-35;-26;-20;-27;-29;-15;-21;-38;-21;10;-13;-29;-30;-25;-30;-23;-16;-16;-13;19;33;46;54;24;-24;-27;-31;-26;4;-19;45;224;249;110;-154;-90;-23;-7;-14;-21;-16;-25;-6;11;3;18;14;26;46;71;77;94;112;125;137;149;157;129;123;102;49;8;-17;-38;-61;-64;-53;-38;-44;-38;-16;-33;-51;-31;-48;-44;-33;-36;-41;-48;-43;-38;-36;-39;-42;-38;-37;-28;-42;-37;-14;19;37;22;1;-47;-38;-38;-49;-51;-38;-10;144;352;106;-211;-116;-35;-47;-41;-49;-33;-30;-31;-27;-19;-4;7;9;10;27;45;61;82;115;117;134;142;121;120;88;40;-7;-28;-42;-74;-82;-79;-62;-77;-69;-59;-40;-46;-55;-66;-70;-55;-51;-53;-58;-71;-60;-37;-52;-51;-73;-63;-43;-54;-43;-28;0;12;21;27;8;-17;-29;-25;-53;-53;-34;-8;119;419;280;-134;-91;-44;-58;-47;-35;-55;-52;-18;-12;-16;-12;-15;10;20;38;36;39;68;79;100;128;132;109;101;90;51;3;-22;-45;-51;-56;-66;-61;-45;-52;-58;-56;-55;-51;-40;-32;-34;-31;-29;-34;-37;-41;-53;-41;-26;-32;-36;-25;-31;-30;-29;-34;-34;-21;-10;12;35;40;38;17;-13;-21;-23;-32;-25;-27;80;342;499;97;0;-45;-96;-50;-37;-19;-47;-38;-11;-18;0;-13;-12;26;29;31;49;54;81;94;114;125;128;124;108;91;35;-2;-7;-24;-38;-47;-55;-53;-60;-53;-53;-54;-36;-36;-41;-43;-48;-50;-31;-23;-35;-25;-23;-30;-35;-41;-36;-23;-19;-17;-37;-27;-11;-20;-35;-23;-18;-9;9;21;54;42;29;-9;-18;-14;-24;-53;-27;18;180;526;339;-118;-55;-12;-40;-18;-24;-21;-22;-7;-5;-2;3;5;29;26;34;55;69;97;115;142;151;143;156;142;125;82;25;-2;-15;-22;-20;-46;-44;-54;-21;-42;-37;-18;-28;-37;-27;0;-11;-13;-19;-22;-15;-44;-33;-37;-30;-30;-37;-38;-30;-18;-10;-20;-20;-36;-29;-15;17;13;33;50;60;60;6;-34;-13;-15;-27;-26;4;67;227;370;55;-56;-64;-38;-34;-19;-30;-17;-6;-7;-4;-3;1;6;19;29;47;63;82;106;133;148;158;150;135;144;105;28;-1;-26;-39;-57;-66;-67;-86;-81;-74;-49;-47;-37;-48;-67;-53;-22;-40;-58;-53;-53;-51;-60;-74;-70;-64;-62;-69;-63;-49;-40;-37;-38;-58;-49;-29;-38;-26;8;28;35;15;-21;-50;-38;-32;-67;-55;-29;140;349;221;-92;-124;-81;-77;-41;-45;-52;-48;-40;-30;-22;-17;-17;-19;0;28;39;30;55;72;88;122;136;110;95;92;58;29;0;-48;-58;-68;-72;-48;-54;-64;-69;-54;-57;-59;-49;-39;-35;-40;-61;-57;-50;-44;-35;-50;-62;-59;-57;-51;-37;-39;-45;-33;-64;-55;-41;-45;-34;-17;-41;-10;17;40;41;26;-15;-34;-24;-51;-35;-26;-24;193;454;282;-116;-88;-28;-43;-34;-30;-40;-53;-25;-29;-12;2;15;11;8;27;37;41;60;73;105;111;107;112;115;100;57;22;-12;-50;-58;-61;-59;-55;-61;-59;-53;-54;-47;-47;-46;-35;-31;-35;-50;-45;-42;-37;-33;-34;-31;-36;-42;-36;-34;-66;-46;-22;-47;-43;-37;-50;-61;-38;-41;-7;24;35;61;45;3;-21;-31;-27;-39;-32;-7;72;279;434;65;-42;-56;-16;-35;-43;-33;-19;-25;-32;-6;-18;-20;0;14;24;38;59;76;98;109;137;145;145;136;118;85;59;0;-30;-59;-67;-79;-93;-82;-71;-68;-44;-56;-64;-60;-63;-53;-46;-51;-49;-40;-39;-42;-47;-41;-43;-56;-46;-47;-58;-48;-47;-41;-35;-28;-29;-7;-11;10;30;32;7;-15;-26;-36;-50;-44;-45;-43;70;226;299;-30;-67;-71;-43;-37;-44;-32;-34;-16;-14;-1;2;4;5;15;34;37;51;84;101;113;140;139;141;145;130;83;41;4;-16;-38;-53;-56;-61;-67;-62;-45;-35;-36;-27;-35;-41;-47;-53;-44;-33;-45;-40;-44;-42;-26;-41;-59;-40;-25;-37;-34;-42;-40;-25;-23;-32;-21;-19;5;21;46;51;10;-15;-27;-23;-12;-18;-15;50;240;446;104;-218;-73;-26;-18;-40;-35;-34;-19;-1;3;3;-14;3;17;25;33;45;55;69;107;108;107;111;114;110;86;36;15;-3;-22;-43;-42;-37;-42;-39;-41;-54;-68;-59;-46;-54;-32;-36;-57;-36;-22;-37;-51;-47;-33;-36;-53;-43;-34;-35;-30;-48;-53;-36;-29;0;-22;-5;19;40;47;30;-7;-26;-13;-20;-25;-13;-24;174;496;314;-121;-92;-7;-16;-26;-17;-3;-18;-17;0;13;8;0;21;29;48;51;55;73;85;120;131;132;144;134;103;69;29;-1;-16;-22;-39;-56;-46;-53;-47;-32;-33;-38;-34;-32;-34;-28;-46;-39;-22;-18;-21;-28;-43;-53;-38;-41;-55;-30;-37;-40;-26;-28;-20;-20;-20;-25;25;44;48;-5;-12;-17;-37;-30;-40;-10;75;222;425;6;-136;-77;-38;-35;-36;-37;-23;-14;-12;-6;3;9;19;35;37;45;59;86;104;122;146;148;156;131;131;96;48;27;-32;-53;-61;-53;-53;-74;-75;-59;-52;-45;-41;-43;-35;-45;-45;-39;-34;-39;-49;-56;-59;-56;-67;-66;-54;-35;-40;-44;-52;-41;-2;-15;-5;23;29;-3;-28;-40;-30;-41;-50;-36;-18;82;332;236;-156;-184;-41;1;-40;-43;-29;-14;-24;-18;-6;6;13;8;9;14;34;71;71;94;107;119;136;134;102;102;58;24;-12;-43;-55;-59;-66;-71;-77;-66;-64;-63;-64;-55;-49;-54;-65;-73;-51;-46;-60;-61;-53;-32;-46;-76;-60;-67;-72;-54;-28;-40;-55;-54;-22;0;-7;19;34;12;-34;-42;-38;-69;-17;-16;2;204;399;157;-133;-80;-37;-37;-43;-53;-43;-39;-40;-37;-26;-15;-5;3;0;1;27;40;61;99;84;123;113;99;92;82;46;6;-5;-33;-44;-44;-38;-61;-55;-52;-60;-49;-37;-27;-41;-58;-44;-23;-43;-29;-36;-30;-25;-38;-31;-22;-20;-25;-24;-23;-31;-17;-30;-33;-22;-2;8;10;49;45;13;-8;-35;-25;-40;-28;-5;10;260;451;195;-119;-84;-51;-30;-25;-8;-11;-18;-14;-5;1;1;-3;17;39;60;54;73;86;115;122;135;138;127;120;99;55;22;-14;-25;-34;-57;-59;-48;-43;-39;-58;-51;-31;-26;-37;-45;-52;-49;-55;-58;-60;-53;-37;-41;-59;-50;-51;-47;-53;-45;-45;-28;-32;-29;-29;-26;-5;8;28;32;27;-24;-47;-25;-74;-37;-1;6;176;337;116;-193;-85;-31;-42;-31;-21;-4;-20;-14;-5;9;10;5;19;30;51;75;86;95;115;141;153;143;136;149;125;70;27;-7;-31;-55;-60;-54;-59;-61;-56;-64;-41;-18;-16;-21;-35;-40;-42;-47;-59;-62;-41;-44;-41;-39;-46;-39;-34;-42;-38;-36;-38;-23;-36;-41;-26;-22;10;25;35;23;-14;-26;-33;-46;-49;-33;-25;112;369;264;-62;-124;-58;-85;-40;-35;-38;-33;-19;-8;-7;-6;-3;3;18;21;32;52;67;88;109;141;132;121;134;112;71;30;3;-15;-30;-38;-65;-46;-43;-46;-40;-33;-32;-32;-49;-35;-20;-20;-23;-27;-36;-46;-34;-18;-18;-17;-16;-26;-25;-25;-34;-24;-37;-30;-16;-4;-19;-25;2;31;50;57;52;7;-12;-7;-7;-18;-12;7;139;456;373;-50;-29;-21;-25;-12;-25;-18;-17;2;-13;1;27;26;24;32;35;40;60;96;96;104;129;150;139;109;110;79;53;16;-23;-38;-37;-34;-36;-49;-55;-51;-45;-38;-37;-41;-47;-30;-37;-48;-37;-24;-27;-35;-39;-34;-20;-16;-19;-27;-34;-29;-17;-18;-7;-9;-27;-2;3;-3;-4;3;43;58;46;66;24;4;-4;-20;-2;5;5;115;345;393;51;-11;-39;-54;-13;-10;-5;-17;-21;1;17;25;31;35;48;62;52;79;89;104;129;153;166;167;154;147;105;45;17;-15;-37;-43;-51;-46;-44;-44;-45;-42;-40;-30;-32;-37;-35;-52;-57;-36;-41;-37;-33;-32;-31;-29;-37;-34;-40;-34;-44;-31;-29;-32;-41;-38;-22;-19;0;28;34;45;19;-1;-34;-55;-36;-27;-29;-10;128;361;219;-184;-137;-34;-47;-27;-27;-31;-31;-9;15;-1;-12;-5;12;36;45;50;62;89;126;119;136;148;169;151;117;73;31;-4;-40;-60;-74;-71;-70;-61;-66;-50;-60;-54;-47;-39;-42;-53;-49;-41;-41;-44;-50;-49;-53;-62;-64;-51;-51;-43;-60;-56;-52;-52;-55;-49;-46;-26;-35;-26;7;28;77;33;-11;-30;-38;-44;-65;-42;-3;75;317;391;-20;-101;-72;-94;-55;-57;-28;-29;-26;-46;-41;-28;-14;-8;3;12;26;35;49;66;53;78;117;126;142;105;61;26;-6;-27;-42;-62;-67;-75;-68;-61;-80;-74;-63;-63;-68;-50;-44;-57;-35;-57;-74;-58;-44;-37;-38;-62;-57;-28;-43;-42;-42;-46;-49;-45;-49;-37;-32;-36;-5;10;20;39;41;22;-11;-35;-28;-22;-35;-34;-12;215;460;213;-125;-65;-71;-53;-48;-47;-38;-35;-43;-25;-21;-10;2;7;10;22;40;50;73;82;94;106;116;115;98;79;41;3;-5;-30;-52;-49;-56;-55;-48;-54;-58;-49;-41;-39;-40;-43;-32;-28;-45;-53;-53;-35;-31;-32;-44;-44;-28;-40;-42;-30;-31;-33;-51;-39;-34;-28;-33;-26;-24;2;38;31;45;28;-11;-25;-29;-29;-23;-12;29;247;278;177;-170;-54;-67;-38;-5;-11;-8;-5;-5;-4;2;14;12;33;35;53;61;85;100;123;143;137;144;168;146;111;63;10;-27;-38;-49;-55;-61;-66;-58;-49;-52;-53;-51;-48;-52;-45;-39;-21;-43;-68;-47;-38;-43;-49;-55;-67;-63;-60;-52;-40;-42;-51;-45;-42;-53;-34;-26;-24;-19;12;18;45;28;-26;-41;-43;-39;-42;-37;-24;93;301;287;-37;-111;-87;-96;-44;-28;-32;-41;-46;-41;-18;-4;-4;0;9;21;33;41;65;95;110;120;139;138;119;130;76;36;-5;-27;-43;-48;-65;-81;-70;-72;-78;-69;-58;-42;-48;-44;-36;-41;-40;-30;-26;-41;-46;-39;-32;-34;-29;-25;-52;-25;-28;-32;-28;-21;-18;-15;-17;-15;-7;-11;1;23;22;51;53;36;-18;-19;-7;-21;-14;0;65;321;450;87;-7;-72;-59;-26;-25;-28;-27;-32;-5;-13;-2;-6;-1;8;16;30;38;57;80;96;112;119;116;117;105;77;50;8;-35;-31;-51;-60;-58;-60;-56;-49;-51;-54;-38;-31;-39;-35;-35;-39;-51;-49;-26;-26;-33;-39;-46;-48;-56;-50;-52;-50;-38;-46;-43;-24;-32;-21;-13;-12;-16;-15;7;36;48;49;44;15;0;-19;-20;-32;-28;-2;130;408;358;-14;-98;-42;-45;-41;-20;-21;-21;-16;-4;7;9;5;6;18;23;47;57;74;98;104;126;123;114;111;124;91;44;10;-6;-32;-37;-51;-66;-68;-56;-30;-44;-59;-56;-45;-32;-34;-38;-26;-19;-30;-40;-43;-43;-21;-47;-41;-37;-30;-23;-49;-53;-48;-53;-51;-46;-39;-34;-25;-24;-27;-1;15;37;39;27;-13;-38;-41;-30;-55;-43;-25;77;247;283;-12;-143;-88;-38;-47;-60;-33;-38;-27;-24;-15;-14;-18;-14;-4;30;24;54;72;93;94;139;151;143;129;130;94;49;2;-33;-53;-69;-83;-89;-89;-84;-63;-62;-66;-57;-56;-41;-46;-59;-71;-57;-48;-66;-49;-57;-58;-36;-54;-66;-65;-68;-68;-66;-68;-62;-53;-55;-53;-35;-23;-4;2;26;45;43;-1;-25;-32;-35;-41;-23;-10;87;308;323;-24;-72;-64;-60;-38;-17;-32;-47;-41;-30;-16;-10;-26;21;15;19;30;52;67;86;109;117;134;146;140;115;83;45;15;-27;-45;-52;-56;-53;-58;-51;-50;-44;-37;-40;-48;-41;-38;-42;-51;-42;-37;-33;-38;-25;-32;-27;-21;-20;-31;-45;-31;-13;-34;-40;-37;-32;-18;-11;-30;16;50;40;60;46;2;-25;-9;-16;-22;-22;-20;144;470;353;-67;-71;-34;-31;-30;-58;-33;-22;-20;-7;-5;13;15;10;7;26;35;47;70;79;99;117;137;122;101;103;71;34;14;-14;-49;-44;-55;-47;-57;-43;-38;-43;-42;-29;-34;-31;-35;-28;-29;-42;-47;-45;-51;-51;-37;-24;-32;-39;-43;-51;-43;-30;-14;-19;-27;-27;-22;-22;-24;-10;39;22;50;52;7;-25;-16;-11;-30;-29;-16;68;302;476;106;-1;-57;-43;-34;-19;-17;-23;-24;0;12;20;-1;15;31;41;41;54;81;92;125;127;144;137;121;108;91;35;16;-21;-49;-73;-66;-76;-82;-82;-84;-66;-51;-87;-63;-53;-67;-68;-55;-58;-70;-66;-62;-51;-87;-78;-61;-64;-65;-70;-70;-57;-51;-39;-18;-62;-43;-19;-29;23;36;3;-36;-41;-23;-51;-31;-33;-12;150;328;130;-174;-98;-47;-45;-28;-25;-19;-12;-18;-16;-14;3;13;0;17;44;39;74;103;104;128;129;144;129;147;102;63;11;-20;-24;-49;-55;-62;-75;-80;-78;-61;-49;-41;-47;-51;-29;-39;-30;-35;-39;-26;-31;-42;-35;-31;-35;-41;-37;-32;-24;-20;-24;-27;-12;-13;-10;5;-3;25;72;50;31;1;-10;-20;-22;-18;26;98;328;349;9;-126;-48;-35;-26;-31;-31;-17;0;1;6;11;28;26;19;33;52;70;96;105;110;122;133;147;195;145;88;44;31;-17;-34;-39;-41;-48;-46;-36;-45;-51;-47;-46;-23;-22;-19;-14;-31;-36;-26;-25;-32;-27;-33;-50;-32;-22;-18;-7;-33;-48;-37;-44;-28;-52;-43;-4;6;-5;14;41;52;45;-1;-20;-16;-36;-26;-25;8;129;411;331;-16;-103;-55;-24;-46;-42;-35;-25;-24;-24;-20;-4;-6;-4;8;16;25;52;45;52;86;107;127;75;90;82;57;30;7;-37;-46;-48;-52;-47;-45;-47;-48;-52;-56;-59;-59;-31;-39;-50;-46;-28;-38;-51;-53;-41;-39;-47;-49;-55;-53;-49;-41;-51;-53;-45;-35;-37;-40;-1;-2;-26;-17;-12;13;11;36;44;37;-4;-16;-44;-29;-16;-23;-4;194;467;263;-102;-68;-29;-28;-25;-27;-21;-29;-18;-17;-10;-2;-8;-5;8;28;49;49;86;104;100;120;129;121;101;96;63;22;-10;-29;-57;-53;-86;-66;-61;-65;-54;-37;-55;-50;-45;-47;-51;-44;-35;-32;-42;-53;-54;-50;-70;-59;-39;-40;-54;-69;-57;-37;-55;-117;-80;-55;-43;-64;-63;-44;-44;-8;-1;-4;8;4;-33;-46;-66;-58;-54;-54;-33;96;292;198;-168;-137;-68;-47;-38;-47;-36;-33;-24;-30;-26;-13;-7;0;7;13;25;39;58;81;106;111;128;130;122;107;67;27;-17;-39;-66;-82;-90;-91;-89;-78;-79;-54;-64;-69;-72;-65;-60;-63;-67;-65;-62;-63;-76;-77;-63;-60;-56;-58;-62;-63;-44;-53;-58;-45;-31;-30;-46;-45;-37;-4;-4;13;18;25;16;-22;-39;-32;-45;-36;-32;14;141;400;202;-165;-105;-49;-48;-28;-34;-34;-21;-21;-16;-8;-8;15;18;16;16;29;56;69;84;106;117;114;122;120;110;54;23;-11;-25;-42;-49;-52;-49;-40;-49;-57;-59;-54;-45;-49;-44;-29;-18;-16;-36;-44;-60;-58;-50;-40;-42;-35;-25;-28;-47;-38;-25;-27;-32;-32;-23;-24;-16;-15;-20;-12;1;21;41;52;53;5;-12;-10;-13;-34;-20;21;142;455;330;-96;-58;-4;-36;-23;-20;-15;-10;-11;-3;2;3;8;18;17;25;37;56;72;92;96;124;118;120;117;110;82;41;7;-11;-31;-49;-52;-45;-37;-39;-54;-49;-44;-42;-39;-27;-28;-19;-11;-7;-12;-33;-44;-27;-22;-24;-28;-43;-56;-65;-36;-16;-22;-11;-17;-25;-17;-7;-5;-7;-8;-5;16;45;65;57;60;2;-19;-21;8;-17;0;19;229;461;216;-158;-37;-9;-26;-1;3;0;-5;-7;14;1;19;29;19;37;61;70;81;93;106;134;146;154;133;129;121;95;39;7;-12;-22;-51;-58;-55;-48;-42;-45;-57;-44;-38;-34;-42;-40;-47;-55;-54;-54;-55;-42;-20;-21;-46;-58;-49;-36;-41;-49;-52;-43;-29;-42;-42;-36;-35;-27;-24;3;10;39;63;-5;-47;-51;-10;-41;-51;-33;26;190;292;57;-212;-109;-34;-47;-43;-34;-20;-3;-1;-21;-9;2;17;11;14;39;51;60;87;112;128;147;149;133;136;104;52;14;-16;-38;-48;-67;-69;-55;-47;-52;-53;-55;-52;-45;-37;-42;-45;-44;-41;-45;-43;-57;-49;-36;-46;-37;-48;-48;-43;-34;-36;-36;-40;-44;-28;-34;-33;-39;-13;5;16;27;37;29;1;-39;-30;-23;-40;-30;-45;131;356;252;-65;-126;-61;-72;-25;-23;-17;-19;-2;-12;-11;-11;-4;6;10;17;41;52;63;78;95;131;121;129;136;118;80;40;1;-29;-36;-54;-58;-60;-52;-51;-62;-64;-48;-39;-44;-38;-38;-40;-28;-18;-21;-52;-48;-43;-46;-44;-35;-47;-35;-41;-43;-27;-36;-42;-18;-37;-29;-13;-9;8;0;25;34;33;0;-21;-20;-33;-40;-10;-5;188;447;247;-102;-76;-16;-34;-36;-28;-15;-24;-31;-18;6;-7;8;9;15;29;35;50;73;87;100;113;113;111;115;105;69;27;-9;-23;-31;-41;-49;-45;-50;-52;-54;-56;-35;-41;-47;-37;-29;-47;-31;-32;-30;-39;-22;-9;-32;-43;-26;-44;-29;-33;-37;-38;-29;-12;-26;-30;-19;-28;-30;14;37;49;65;46;-4;-15;-20;-27;-24;-7;30;184;440;266;-105;-60;-14;-46;-30;-28;-27;-7;-5;-8;-7;7;27;25;24;36;53;77;95;104;119;142;160;151;130;126;99;39;9;-12;-35;-46;-69;-52;-40;-33;-38;-49;-52;-28;-27;-49;-31;-18;-27;-33;-39;-42;-55;-36;-41;-43;-54;-40;-23;-31;-32;-42;-41;-42;-37;-22;-28;-18;4;8;21;46;37;22;-34;-44;-34;-55;-43;-20;11;193;300;80;-221;-118;-74;-47;-45;-41;-38;-32;-42;-14;-6;0;-2;1;13;32;45;63;88;124;137;150;158;140;144;104;79;17;-19;-40;-56;-71;-74;-75;-76;-70;-61;-63;-59;-66;-64;-49;-49;-48;-56;-56;-47;-53;-51;-63;-64;-47;-50;-55;-43;-41;-44;-40;-42;-44;-51;-73;-35;-39;-6;6;4;22;27;15;-15;-45;-39;-12;-43;-27;-15;168;407;181;-189;-87;-24;-42;-60;-42;-30;-35;-13;-21;-14;-9;-4;4;-5;14;29;33;86;94;99;127;126;119;121;93;60;27;-6;-33;-46;-56;-53;-58;-56;-52;-54;-61;-58;-46;-29;-31;-32;-29;-32;-40;-44;-44;-26;-40;-48;-26;-23;-29;-31;-45;-44;-25;-38;-30;-27;-38;-46;-34;-25;4;4;39;50;47;17;-18;-27;-27;-23;-34;-24;10;247;481;191;-147;-62;-44;-31;-26;-33;-26;-20;-19;-14;1;8;9;15;21;31;52;55;81;107;112;122;125;124;115;108;66;23;0;-22;-31;-37;-60;-51;-39;-41;-44;-42;-34;-38;-40;-35;-34;-38;-47;-51;-56;-31;-34;-32;-20;-13;-15;-20;-29;-26;-34;-30;-25;-20;-22;-25;-21;-16;-3;14;45;52;61;24;-10;-18;-14;-29;-30;-21;15;189;442;248;-163;-87;-17;-13;-17;-21;15;26;-3;-1;4;3;3;16;35;47;73;65;99;102;114;147;153;150;152;117;56;26;-23;-42;-48;-60;-50;-77;-62;-37;-43;-56;-36;-28;-61;-60;-48;-43;-43;-38;-42;-44;-45;-51;-54;-51;-50;-47;-46;-43;-36;-51;-53;-36;-20;-43;-33;-10;23;23;31;10;-25;-20;-37;-58;-52;-41;-17;91;303;222;-135;-120;-56;-80;-47;-39;-21;-24;-23;-33;-12;1;0;9;19;29;36;57;96;96;115;147;160;148;137;120;81;22;-14;-30;-55;-72;-83;-77;-65;-74;-57;-71;-66;-57;-49;-38;-48;-57;-55;-42;-37;-37;-47;-52;-69;-61;-50;-60;-66;-41;-33;-33;-50;-58;-53;-39;-29;-13;-6;16;40;31;19;-14;-28;-22;-30;-42;-41;-1;115;353;303;-14;-121;-61;-79;-42;-28;-22;-21;-15;-5;14;-7;4;6;12;18;28;49;65;84;94;117;118;131;119;124;84;41;5;-21;-35;-29;-26;-37;-46;-59;-52;-46;-36;-30;-33;-32;-42;-28;-16;-28;-40;-48;-23;3;-17;-29;-36;-36;-33;-30;-26;-31;-24;-16;-17;-27;-46;-25;-8;-8;7;22;52;42;6;-20;-8;-22;-33;-26;3;127;405;389;7;-63;-55;-51;-31;-4;-14;-19;-8;-9;-1;-9;0;24;23;36;55;59;69;80;119;146;132;132;133;120;81;46;25;-3;-23;-34;-44;-41;-34;-38;-64;-56;-34;-43;-51;-39;-13;-23;-26;-17;-31;-44;-33;-18;-14;-16;-21;-16;-14;-14;-19;-23;-31;-45;-26;-29;-20;-16;-12;3;24;19;66;66;37;3;-9;2;2;-12;-9;7;200;417;189;-153;-79;-15;-22;-7;-22;-18;-7;4;2;2;0;7;29;31;52;51;75;86;101;127;131;150;125;120;111;78;23;-12;-41;-56;-57;-71;-62;-59;-62;-64;-63;-62;-57;-52;-69;-57;-40;-38;-58;-65;-56;-51;-56;-53;-59;-54;-67;-81;-73;-70;-58;-47;-50;-56;-16;-13;-37;-33;4;25;68;16;-25;-28;-24;-46;-53;-39;0;101;300;273;-65;-121;-69;-87;-41;-25;-22;-26;-25;-21;-11;-5;-6;9;31;33;37;50;72;91;103;125;146;141;125;115;76;30;-4;-24;-52;-62;-67;-73;-72;-62;-68;-58;-51;-41;-35;-49;-53;-58;-42;-41;-46;-38;-51;-59;-22;-21;-51;-49;-45;-36;-34;-42;-50;-56;-53;-31;-36;-38;-27;-8;-8;18;30;29;23;-1;-20;-24;-27;-18;-26;-8;76;359;358;-19;-97;-73;-71;-38;-26;-46;-41;-25;-4;-9;-14;-15;9;9;15;23;48;71;104;101;87;106;109;122;93;89;40;-10;-10;-57;-57;-53;-50;-52;-67;-67;-57;-55;-37;-37;-38;-38;-47;-57;-50;-41;-37;-35;-37;-36;-45;-48;-49;-48;-45;-50;-44;-38;-37;-41;-37;-42;-31;-36;-6;0;44;26;48;45;-3;-26;-21;-14;-35;-36;7;78;346;446;31;2;-22;-72;-48;-43;-29;-18;-9;-14;1;-3;-6;-5;6;21;29;40;64;75;90;115;120;120;107;104;84;41;2;-10;-31;-51;-52;-40;-49;-45;-49;-46;-37;-30;-36;-41;-47;-57;-51;-42;-33;-23;-32;-38;-47;-32;-36;-39;-19;-25;-26;-30;-31;-35;-26;-24;-25;-34;-30;-31;0;24;23;42;60;23;-4;-31;-31;-33;-25;-20;31;236;449;163;-202;-93;-52;-43;-64;-48;-25;-16;-7;-9;-18;2;5;15;27;41;59;73;92;106;117;138;141;126;133;113;69;12;-17;-49;-71;-80;-76;-70;-73;-64;-51;-46;-58;-32;-42;-40;-42;-41;-50;-62;-54;-42;-14;-39;-56;-50;-53;-30;-56;-64;-49;-41;-45;-46;-48;-21;-23;-31;-16;3;20;37;26;-16;-23;-18;-39;-43;-41;-19;122;333;240;-167;-173;-56;-39;-35;-44;-25;-24;-22;5;-2;2;2;12;17;41;59;64;81;106;130;149;153;153;142;127;87;52;7;-35;-43;-44;-60;-61;-73;-68;-40;-49;-68;-48;-40;-23;-19;-15;-14;-25;-37;-40;-42;-35;-58;-52;-30;-43;-35;-33;-55;-39;-23;-54;-47;-26;-26;-12;4;12;10;38;63;47;-17;-9;-19;-19;-13;-14;18;209;447;195;-135;-95;-16;-42;-21;-9;-19;-2;6;13;5;18;8;33;41;43;51;64;84;120;114;129;135;137;141;116;87;45;15;8;-27;-29;-26;-31;-33;-71;-47;-9;-15;-28;-26;-5;-30;-18;-26;-32;-31;-34;-40;-21;-16;-9;-8;-31;-43;-30;-28;-26;-20;-6;-4;-17;-23;-14;-13;0;1;27;45;66;66;27;-14;-10;-16;-14;2;-2;85;362;399;53;-12;-37;-39;-16;-15;-18;-19;-22;-15;4;17;13;25;30;30;54;63;67;89;110;113;137;153;129;131;111;55;6;-6;-23;-24;-26;-60;-38;-24;-34;-32;-38;-27;-26;-27;-35;-41;-36;-42;-46;-42;-33;-33;-33;-33;-33;-29;-24;-43;-27;-11;-15;-31;-35;-31;-30;-22;-23;-22;-18;-21;-3;26;44;41;38;20;-14;-20;-14;-40;-24;-21;69;315;433;91;6;-57;-50;-30;-10;-49;-13;-36;-17;-5;0;1;3;13;14;32;38;56;82;93;105;120;143;140;110;88;59;14;-27;-32;-32;-45;-54;-67;-61;-46;-51;-64;-62;-54;-44;-59;-63;-60;-49;-49;-46;-34;-40;-54;-43;-43;-49;-29;-31;-51;-45;-42;-49;-53;-52;-37;-23;-16;-14;-27;-34;-24;-5;-9;37;49;34;4;-13;-22;-16;-50;-40;-2;61;277;393;69;-73;-54;-69;-29;-36;-35;-20;-30;-14;10;3;14;18;17;33;50;65;90;108;121;143;130;143;143;141;118;44;22;-23;-49;-60;-53;-67;-70;-67;-63;-54;-45;-49;-44;-44;-46;-42;-31;-30;-32;-39;-33;-37;-54;-60;-58;-61;-53;-69;-55;-52;-55;-48;-60;-67;-59;-54;-50;-31;-11;-10;17;25;15;4;-25;-35;-45;-54;-55;-49;-25;87;249;293;-81;-180;-74;-80;-42;-30;-31;-51;-39;-37;-24;-15;-4;2;-1;16;40;57;72;79;104;130;146;152;128;115;90;54;12;-40;-63;-71;-77;-76;-83;-67;-68;-79;-70;-69;-77;-77;-61;-45;-58;-70;-57;-50;-51;-65;-52;-56;-42;-36;-51;-74;-62;-44;-55;-60;-53;-61;-67;-52;-49;-30;-3;-4;4;39;36;1;-44;-41;-34;-52;-58;-22;41;227;259;66;-197;-69;-30;-37;-42;-38;-53;-34;-14;-9;-13;-12;-29;-19;-3;13;32;50;71;85;105;135;130;115;114;89;55;0;-26;-40;-42;-69;-77;-78;-67;-67;-69;-65;-65;-46;-54;-54;-45;-45;-48;-51;-45;-34;-48;-51;-33;-44;-36;-49;-46;-37;-29;-27;-38;-34;-17;-17;-34;-20;-39;8;16;25;33;45;48;-18;-41;-68;-35;-30;-15;-28;133;452;344;-85;-98;-17;-26;-43;-60;-33;-17;-24;-22;-5;2;3;0;6;18;53;52;54;80;91;112;140;135;127;119;75;32;9;-4;-34;-72;-54;-28;-71;-67;-56;-47;-45;-46;-35;-51;-50;-42;-34;-24;-40;-57;-30;-36;-40;-40;-26;-20;-31;-30;-26;-26;-28;-17;-27;-13;-18;-22;-19;-9;1;8;36;66;71;48;6;-15;-17;-10;-12;-10;0;130;448;375;-56;-83;-17;-22;-28;-37;-5;-10;-9;-12;-6;14;29;15;20;28;44;74;82;106;128;143;151;135;121;117;78;57;-1;-15;-38;-53;-50;-62;-78;-82;-68;-48;-47;-50;-44;-51;-47;-37;-39;-39;-39;-26;-35;-31;-38;-17;-37;-29;-18;-30;-31;-43;-36;-15;-25;-32;-20;-19;-19;-4;13;9;39;46;14;-11;-25;-24;-21;-38;-10;-3;116;324;188;-206;-128;-38;-30;-18;-38;-26;-26;-11;-11;5;-2;-2;23;15;19;58;67;87;108;137;178;164;148;151;137;91;36;-20;-41;-48;-60;-63;-64;-62;-59;-71;-67;-57;-51;-46;-50;-56;-57;-31;2;-24;-53;-65;-68;-48;-63;-60;-57;-43;-38;-42;-48;-39;-39;-45;-29;-41;-18;19;32;38;10;-22;-31;-15;-31;-54;-40;-22;105;331;230;-88;-119;-64;-75;-43;-31;-49;-30;-46;-20;-5;-31;-18;-1;8;22;23;38;56;86;99;111;147;163;137;107;74;21;-10;-37;-73;-75;-62;-67;-75;-72;-72;-56;-45;-64;-69;-65;-61;-53;-52;-49;-45;-36;-44;-47;-60;-64;-44;-32;-41;-41;-35;-61;-39;-47;-36;-22;-26;-24;-32;0;43;45;6;9;-34;-48;-53;-34;-40;-14;59;320;393;71;-128;-57;-106;-53;-30;-22;-29;-33;-43;-35;-16;0;9;23;32;17;33;51;70;80;107;127;133;124;111;99;56;22;43;-6;-31;-41;-54;-49;-52;-56;-64;-50;-35;-42;-44;-31;-32;-37;-51;-48;-33;-29;-36;-43;-37;-43;-46;-52;-39;-35;-33;-29;-38;-41;-40;-35;-25;-27;-4;23;20;46;32;-1;-23;-34;-28;-27;-18;-54;71;323;397;77;-110;-53;-85;-35;-25;-53;-48;-21;-16;-13;-27;-14;2;26;19;22;33;60;68;89;119;134;134;137;123;95;40;4;1;-38;-57;-46;-57;-59;-62;-59;-80;-58;-50;-49;-51;-42;-41;-46;-46;-57;-58;-46;-42;-48;-35;-42;-42;-44;-34;-39;-33;-37;-36;-28;-25;-24;-36;-29;-29;18;6;32;41;-16;-49;-41;-38;-13;-39;-27;21;197;177;59;-167;-94;-42;-54;-28;-29;-23;-24;-25;-7;-2;2;-7;5;20;31;46;70;94;108;121;142;152;158;149;104;65;12;-35;-47;-68;-73;-83;-88;-74;-66;-53;-35;-43;-61;-53;-57;-45;-60;-60;-56;-54;-59;-63;-53;-57;-59;-58;-57;-37;-43;-51;-46;-53;-36;-42;-30;-27;-12;17;44;29;5;-26;-30;-39;-47;-23;-18;10;174;375;135;-230;-87;-6;-40;-45;-31;-33;-20;-9;-14;-11;-1;-1;10;18;25;37;56;87;94;120;139;141;157;131;107;76;26;0;-52;-46;-35;-48;-46;-49;-42;-58;-61;-44;-33;-31;-34;-26;-26;-30;-37;-47;-37;-36;-33;-36;-32;-43;-28;-26;-17;-21;-19;-23;-32;-16;-23;-1;31;42;49;52;31;-1;-18;-18;-23;-25;-16;86;328;413;46;-109;-40;-19;-32;-31;-14;-4;0;-5;4;-4;5;17;22;24;35;57;74;83;98;110;121;134;115;117;88;55;38;-6;-26;-42;-62;-50;-36;-47;-39;-44;-55;-33;-29;-47;-49;-35;-30;-27;-28;-23;-17;-32;-35;-35;-20;0;-29;-42;-33;-15;0;-21;-18;-12;-2;16;63;62;48;4;-17;-17;-11;-30;-35;23;162;466;348;-88;-78;-10;-3;-16;-19;-19;-15;-8;0;5;6;8;21;25;41;48;74;88;98;120;129;140;143;142;135;91;35;29;-6;-18;-33;-44;-25;-30;-27;-40;-40;-38;-38;-36;-18;-36;-32;-39;-45;-37;-35;-31;-39;-33;-23;-22;-32;-29;-19;-6;-11;-26;-9;0;14;35;58;65;25;-12;-7;-26;-29;-13;-1;39;191;415;159;-210;-62;5;-32;-29;-16;-3;-11;5;21;18;25;36;40;46;66;76;91;113;129;148;169;168;170;159;120;86;36;0;-30;-51;-70;-76;-60;-55;-52;-55;-56;-46;-44;-38;-52;-59;-48;-45;-63;-62;-53;-42;-54;-24;-22;-55;-37;-28;-23;-31;-31;-18;21;20;28;32;-17;-30;-43;-48;-31;-38;-23;69;240;349;-18;-100;-70;-30;-47;-31;-14;-15;-22;-22;-19;-10;0;18;10;23;35;47;80;96;103;112;137;151;138;108;66;43;-4;-29;-43;-59;-71;-75;-74;-69;-68;-41;-38;-51;-45;-47;-51;-49;-47;-72;-55;-54;-54;-50;-49;-46;-48;-52;-41;-44;-48;-37;-25;-8;17;25;35;27;-8;-21;-35;-35;-38;-41;-24;78;325;381;5;-161;-69;-22;-51;-68;-55;-58;-43;-26;-15;-27;-26;-5;0;4;8;28;44;64;89;95;98;118;105;89;71;28;-9;-39;-41;-57;-72;-66;-61;-69;-66;-61;-63;-48;-64;-62;-58;-59;-61;-59;-59;-57;-54;-41;-52;-58;-59;-59;-55;-58;-62;-40;-49;-39;-41;-5;31;20;-20;-44;-51;-54;-71;-37;-39;53;355;424;39;-147;-80;-63;-65;-47;-66;-50;-50;-46;-44;-24;-29;-37;-18;0;5;10;31;59;77;92;93;88;100;93;52;20;-18;-47;-62;-74;-71;-74;-75;-73;-66;-58;-66;-56;-57;-59;-52;-39;-40;-63;-64;-64;-63;-58;-51;-72;-61;-52;-58;-59;-50;-31;-37;-38;1;-20;-1;29;9;-30;-44;-33;-42;-48;-29;-7;152;389;259;-133;-113;-39;-47;-29;-36;-30;-10;-7;-26;-14;-12;0;17;23;26;42;67;76;104;120;128;136;153;146;113;56;16;-12;-39;-63;-64;-70;-63;-64;-55;-59;-58;-64;-69;-65;-56;-32;-63;-51;-59;-41;-51;-48;-43;-78;-55;-51;-52;-48;-22;-49;-32;-7;-2;10;36;22;-21;-37;-20;-45;-51;-39;-20;112;299;194;-122;-119;-45;-52;-25;-43;-13;-35;-10;-11;-12;8;2;5;20;25;44;52;72;94;132;148;151;120;148;124;69;28;-12;-30;-49;-65;-69;-68;-59;-53;-66;-64;-71;-66;-54;-43;-38;-36;-35;-49;-45;-53;-52;-47;-54;-53;-44;-37;-29;-37;-42;-43;-41;-22;-3;11;30;29;-6;-33;-43;-30;-37;-36;-22;19;231;380;79;-77;-83;-87;-70;-34;-44;-34;-28;-20;-22;-14;-4;-6;0;23;17;35;53;70;88;114;117;120;112;112;84;44;-2;-12;-41;-52;-64;-66;-65;-67;-61;-64;-59;-44;-43;-44;-44;-35;-49;-45;-48;-47;0;-12;-34;-47;-33;-48;-56;-57;-51;-51;-42;-31;-38;-22;21;26;28;43;10;-29;-35;-33;-33;-25;-13;45;332;461;50;-61;-35;-45;-44;-43;-35;-41;-28;-15;-7;-4;-6;1;9;23;31;46;64;72;92;104;121;111;98;108;74;38;-7;-12;-31;-43;-51;-65;-66;-54;-44;-56;-43;-41;-32;-38;-26;-35;-35;-35;-35;-32;-36;-42;-40;-43;-36;-38;-31;-21;-31;-28;-29;-40;-50;-16;-11;11;36;52;61;30;-19;-14;3;-13;-31;-23;41;268;470;164;-159;-66;-40;-29;-24;-13;-15;-10;-2;-12;-8;10;4;16;36;38;66;84;105;114;145;147;155;162;141;101;74;27;-8;-30;-46;-50;-57;-53;-57;-20;-19;-29;-15;-30;-49;-49;-37;-35;-25;-29;-31;-21;-33;-21;-38;-47;-31;-42;-43;-39;-40;-34;-38;-19;-18;9;40;25;29;11;-13;-38;-33;-48;-58;-29;27;169;245;50;-275;-109;-34;-34;-55;-52;-32;-19;-19;-2;-9;0;12;23;36;44;55;81;115;127;136;145;150;141;135;112;57;5;-21;-45;-59;-81;-72;-54;-67;-85;-68;-65;-47;-52;-46;-28;-41;-50;-41;-44;-23;-58;-51;-49;-54;-47;-31;-54;-68;-49;-42;-30;-32;-27;-14;0;18;26;33;-8;-34;-39;-37;-29;-27;-41;85;335;274;-55;-118;-51;-52;-49;-42;-32;-14;-21;-37;-6;4;-5;-1;-1;11;37;59;62;68;102;133;112;132;131;108;76;34;9;-26;-40;-50;-59;-42;-54;-57;-58;-59;-54;-42;-34;-34;-44;-40;-45;-52;-43;-53;-47;-44;-34;-44;-39;-39;-46;-45;-40;-25;-15;-13;-18;-16;18;27;44;62;22;-35;-34;-44;-21;-12;-5;58;274;425;128;16;-72;-50;-30;-27;-26;-24;-26;-19;-18;-4;-6;-2;5;20;41;42;49;68;82;101;119;128;129;119;100;61;26;-13;-43;-31;-53;-51;-39;-55;-61;-53;-40;-45;-64;-61;-39;-29;-38;-36;-33;-41;-49;-50;-41;-31;-43;-31;-36;-35;-28;-35;-43;-21;-12;-10;10;24;35;57;34;2;-4;-16;-26;-25;-20;11;181;450;291;-92;-72;-27;-44;-22;-35;-14;-14;-8;0;2;0;16;45;36;32;45;77;85;93;128;146;143;134;135;121;71;34;9;-27;-48;-49;-54;-52;-54;-62;-41;-49;-36;-49;-36;-26;-45;-41;-32;-37;-41;-58;-52;-53;-52;-52;-45;-46;-33;-40;-30;-30;-41;-18;9;16;21;20;5;-19;-54;-35;-48;-47;-34;-14;132;320;111;-211;-120;-45;-43;-36;-49;-36;-35;-28;-25;-25;-23;-7;0;11;32;59;72;82;103;127;141;152;149;142;112;58;4;-20;-39;-53;-69;-93;-84;-76;-70;-74;-68;-54;-52;-52;-55;-56;-53;-61;-57;-50;-58;-60;-64;-67;-62;-53;-54;-74;-69;-46;-44;-37;-25;0;18;-11;-3;-34;-33;-37;-37;-51;-25;2;177;366;115;-183;-111;-41;-44;-46;-37;-23;-32;-25;-24;-24;-5;14;-4;-7;11;41;39;77;97;99;121;129;106;108;90;48;1;-38;-44;-56;-73;-69;-66;-70;-62;-56;-58;-65;-55;-41;-52;-47;-42;-46;-42;-49;-54;-53;-52;-59;-59;-59;-52;-53;-47;-40;-40;-32;0;24;27;37;14;-33;-37;-49;-50;-15;-13;2;257;346;140;32;-74;-20;-47;-46;-41;-33;-27;-33;-18;-11;-8;2;8;12;25;32;55;64;91;106;125;130;107;104;87;49;7;-14;-20;-42;-66;-55;-50;-64;-47;-35;-25;-41;-45;-38;-51;-34;-24;-41;-37;-35;-33;-31;-33;-36;-28;-27;-34;-27;-28;-30;-24;4;5;2;31;40;27;-10;-21;-21;-8;-10;-11;37;210;484;247;-157;-70;5;-18;-33;-27;-18;-9;-14;-14;-7;16;12;15;26;38;48;64;89;88;141;134;113;112;130;94;49;20;-10;-28;-40;-45;-42;-37;-59;-55;-47;-68;-57;-41;-33;-35;-31;-39;-46;-35;-35;-38;-47;-44;-41;-53;-48;-39;-43;-43;-28;-29;-7;30;40;33;3;-33;-48;-36;-36;-62;-31;8;150;365;131;-223;-114;-38;-47;-30;-41;-24;-18;-30;-19;-8;-3;13;14;18;41;60;61;80;102;124;133;155;162;143;107;45;13;-18;-39;-60;-67;-80;-77;-72;-63;-42;-32;-25;-35;-43;-48;-55;-58;-44;-32;-33;-36;-48;-50;-51;-69;-65;-55;-48;-43;-42;-46;-30;-21;10;22;26;9;-14;-43;-39;-45;-41;-35;-5;56;284;366;31;-169;-75;-75;-39;-41;-18;-46;-30;-12;-9;0;10;12;11;18;30;44;74;81;102;117;129;134;132;113;73;22;0;-40;-49;-52;-52;-46;-61;-64;-57;-62;-55;-43;-40;-36;-37;-55;-56;-52;-57;-24;-17;-35;-61;-32;-33;-43;-70;-55;-32;-28;-26;-18;-31;-11;-2;6;40;56;25;-12;-21;-46;-32;-29;-33;24;290;286;164;-114;-72;-84;-49;-14;-17;-20;-25;-24;-33;-16;-14;-8;16;5;10;28;57;65;80;102;126;125;106;104;79;41;9;-22;-36;-39;-38;-77;-71;-52;-52;-53;-49;-53;-41;-46;-45;-40;-61;-51;-35;-44;-44;-43;-47;-39;-44;-44;-32;-38;-47;-31;-55;-52;-32;-33;-3;29;30;35;18;-15;-33;-55;-40;-48;-27;2;200;452;216;-146;-76;-33;-46;-42;-28;-31;-21;-6;-13;-3;2;3;16;36;46;52;62;79;95;128;149;157;145;138;103;69;24;-17;-36;-54;-45;-48;-74;-82;-62;-63;-57;-48;-46;-36;-41;-36;-34;-44;-50;-56;-58;-49;-29;-41;-41;-30;-50;-44;-39;-37;-40;-20;-5;8;29;26;10;-39;-32;-54;-29;-37;-13;25;180;343;109;-192;-78;-24;-32;-19;-26;-35;-24;-20;-11;3;2;-4;8;27;48;58;52;86;114;133;143;145;145;143;113;45;5;-14;-42;-49;-72;-66;-61;-66;-59;-63;-50;-56;-47;-56;-52;-51;-46;-27;-44;-58;-39;-35;-42;-45;-46;-39;-41;-40;-18;-31;-37;-11;-3;10;44;39;-3;-23;-32;-22;-54;-26;-24;81;332;378;30;-62;-68;-80;-55;-38;-42;-45;-28;-25;-38;-9;2;9;12;12;33;42;50;94;78;92;113;131;123;102;81;26;-3;-32;-44;-42;-75;-77;-70;-59;-53;-47;-56;-54;-47;-61;-54;-44;-47;-32;-39;-17;-17;-38;-57;-47;-45;-52;-49;-16;-36;-36;-20;-8;0;21;48;57;15;-27;-31;-25;-38;-3;-21;81;337;416;93;-143;-60;-34;-51;-44;-50;-34;-20;-15;-6;3;4;4;20;20;36;47;81;89;93;117;120;125;125;117;79;49;-2;-24;-34;-43;-51;-51;-47;-4;-7;-35;-32;-31;-16;-20;-29;-17;-16;-27;-22;-22;-22;-26;-6;-25;-43;-24;-19;-31;-10;-19;-15;-5;11;15;41;48;29;1;-15;-15;-25;-6;3;8;187;449;231;-159;-60;-17;-26;-6;-3;-7;-7;-1;0;3;9;14;19;25;37;59;64;89;125;132;131;145;162;149;94;45;25;-14;-47;-81;-82;-77;-76;-83;-78;-69;-67;-67;-58;-54;-43;-62;-73;-81;-59;-62;-69;-70;-70;-73;-74;-63;-52;-46;-52;-64;-29;-13;2;2;6;6;-19;-49;-47;-65;-55;-46;-27;102;323;251;-148;-169;-49;-59;-49;-43;-45;-63;-43;-19;-16;4;-3;0;35;24;52;58;70;87;104;139;144;146;133;94;77;24;-17;-49;-50;-64;-69;-58;-55;-51;-53;-53;-46;-42;-51;-41;-36;-47;-57;-57;-52;-47;-49;-56;-58;-47;-42;-49;-40;-37;-43;-31;-39;-18;18;24;40;36;-11;-34;-39;-40;-46;-41;-38;56;311;418;18;-121;-52;-60;-46;-40;-25;-38;-24;-19;-27;-15;-20;10;-24;16;50;39;63;86;98;96;107;118;121;101;54;8;-3;-34;-47;-42;-55;-60;-50;-61;-64;-64;-65;-36;-41;-51;-48;-49;-51;-46;-59;-71;-52;-56;-62;-56;-50;-35;-60;-60;-44;-31;-28;-28;-3;24;24;23;0;-17;-30;-41;-36;-29;-29;64;354;458;19;-109;-46;-51;-41;-38;-26;-1;-38;-36;-16;-8;-11;5;3;10;34;41;66;76;87;108;95;99;103;98;63;13;-4;-20;-44;-52;-54;-51;-50;-65;-65;-60;-56;-46;-40;-44;-49;-58;-49;-51;-60;-50;-41;-35;-51;-55;-42;-29;-30;-43;-21;-36;-24;-30;-13;26;27;51;25;-13;-27;-41;-55;-36;-10;3;221;416;198;-120;-92;-22;-37;-55;-36;-20;-9;-17;-15;-12;5;5;17;23;50;79;82;101;73;106;132;121;116;131;93;42;-6;-26;-44;-75;-78;-77;-72;-60;-56;-69;-68;-64;-54;-56;-59;-56;-58;-67;-61;-69;-89;-47;-56;-55;-52;-56;-51;-53;-46;-41;-28;13;6;16;5;-33;-49;-45;-62;-57;-48;-9;128;340;180;-155;-144;-47;-52;-35;-34;-37;-38;-29;-8;-4;-14;-2;12;7;16;34;58;69;91;118;137;137;127;122;103;33;0;-12;-33;-72;-83;-80;-78;-89;-50;-63;-54;-50;-51;-42;-37;-53;-58;-64;-60;-52;-71;-56;-61;-63;-58;-59;-48;-54;-50;-36;-40;-20;8;17;22;33;-8;-34;-36;-45;-38;-41;-24;63;324;418;34;-174;-67;-19;-58;-41;-36;-35;-34;-20;-1;-20;-18;0;5;19;22;49;45;69;86;102;109;122;97;87;67;17;-8;-31;-50;-60;-63;-64;-82;-68;-47;-39;-48;-39;-26;-43;-44;-41;-54;-39;-38;-41;-43;-53;-48;-54;-64;-50;-37;-34;-47;-28;-10;14;33;45;24;-22;-39;-10;-41;-37;-25;0;224;469;221;-113;-100;-17;-32;-24;-33;-38;-17;-8;-10;-14;-11;10;18;35;34;36;49;84;104;103;125;122;127;123;90;63;14;-4;-27;-49;-44;-52;-57;-45;-42;-50;-49;-31;-23;-38;-33;-31;-22;-10;-50;-54;-51;-56;-40;-32;-35;-34;-33;-22;-23;-24;-8;26;25;26;43;13;7;-40;-33;-37;-46;5;73;353;376;62;-141;-61;-12;-31;-42;-31;-47;-24;-19;-3;1;2;0;20;26;36;59;81;111;133;144;145;146;126;127;77;27;2;-20;-40;-52;-59;-59;-61;-62;-59;-65;-42;-27;-42;-49;-63;-48;-51;-56;-17;-60;-61;-49;-57;-62;-49;-36;-42;-53;-6;-19;10;33;13;-27;-38;-40;-48;-49;-41;-40;117;342;272;-141;-152;-32;-43;-49;-49;-16;-9;-28;-29;-8;7;-6;6;21;32;54;73;91;114;136;164;163;153;128;122;78;5;-11;-34;-47;-63;-63;-57;-53;-61;-57;-36;-21;-34;-51;-43;-31;-25;-29;-28;-29;-17;-33;-52;-38;-26;-22;-42;-46;-27;-27;-16;6;30;46;33;0;-26;-36;-23;-27;-22;-3;96;384;352;-46;-122;-40;-15;-43;-41;-16;-22;-33;-25;0;20;7;5;22;38;23;52;77;90;110;118;140;141;121;107;71;48;-9;-36;-20;-31;-52;-46;-36;-40;-39;-39;-15;-24;-5;-19;-29;-23;-17;-19;-22;-31;-22;-15;-5;-13;-27;-20;-22;-17;-12;-25;-20;10;46;61;60;57;17;6;-8;-11;-21;-14;-3;112;394;473;67;-96;-20;-15;-11;-13;-35;-32;-1;3;15;28;31;23;24;40;43;69;61;85;110;118;145;134;123;116;80;36;1;-18;-44;-44;-44;-47;-66;-44;-54;-55;-27;-41;-40;-43;-39;-35;-38;-23;-7;-17;-43;-30;-30;-25;-22;-26;-32;-42;-29;-7;-22;-26;-25;15;32;51;46;-2;-12;-16;-27;-28;-40;-55;46;274;477;140;-171;-62;-36;-20;-2;-6;-18;-8;-8;-13;-5;-2;6;6;12;45;39;61;106;102;123;136;130;128;127;81;56;-1;-40;-55;-57;-68;-73;-63;-62;-49;-55;-53;-40;-36;-52;-48;-47;-44;-43;-55;-34;-29;-60;-47;-44;-47;-53;-58;-67;-54;-33;-36;-23;2;35;24;12;-23;-51;-53;-48;-61;-47;-14;99;306;267;-135;-139;-43;-51;-61;-51;-11;-13;-19;-16;-13;-31;-6;15;23;23;35;52;83;105;99;119;137;139;133;98;70;37;-10;-50;-49;-54;-70;-76;-65;-57;-58;-47;-51;-34;-25;-25;-37;-47;-16;-36;-33;-32;-36;-38;-49;-36;-32;-52;-53;-45;-32;-23;-41;-58;-3;22;27;19;5;-24;-34;-37;-34;-39;-22;-3;160;408;229;-94;-68;-40;-34;-24;-40;-38;-23;-19;-10;0;9;6;15;28;42;28;55;74;91;115;124;115;113;92;110;78;23;0;-38;-46;-47;-51;-58;-46;-40;-56;-47;-40;-45;-37;-49;-40;-28;-36;-32;-24;-34;-41;-40;-42;-39;-74;-53;-27;-26;-31;-33;-26;-23;18;-6;43;61;37;-6;-25;-29;-39;-40;-32;3;150;456;261;-87;-86;-36;-44;-45;-35;-39;-49;-32;-13;-2;-13;7;-1;0;33;33;27;56;77;94;103;112;107;97;80;33;11;-13;-23;-53;-58;-60;-62;-59;-58;-55;-70;-69;-57;-77;-49;-63;-61;-39;-40;-54;-59;-55;-57;-57;-52;-38;-35;-9;14;-33;-44;-40;-34;6;11;7;29;-5;-39;-50;-20;-27;-43;-29;27;246;416;67;-155;-94;-58;-64;-25;-38;-36;-30;-41;-32;-18;-33;-11;13;23;7;37;69;78;108;117;126;128;140;81;66;29;-12;-35;-49;-54;-77;-77;-73;-69;-69;-77;-58;-49;-51;-50;-51;-47;-51;-52;-51;-61;-53;-45;-59;-47;-56;-46;-25;-47;-46;-25;9;1;36;47;-24;-53;-59;-55;-47;-47;7;88;328;216;-104;-166;-71;-65;-58;-66;-46;-26;-9;-34;-31;-13;10;-5;8;6;32;58;70;106;119;114;117;123;102;82;56;26;-30;-71;-44;-67;-83;-80;-76;-69;-59;-56;-35;-60;-52;-22;-49;-35;-41;-54;-34;-46;-50;-52;-56;-57;-47;-34;-37;-27;-29;-6;27;37;38;28;-27;-38;-24;-41;-3;-12;11;212;407;163;-284;-84;-15;-24;-36;-25;-19;-26;-25;-26;-16;2;9;0;2;19;47;57;53;80;105;110;98;106;97;75;35;2;-19;-37;-52;-67;-74;-64;-79;-60;-54;-39;-42;-51;-61;-55;-46;-51;-52;-35;-41;-36;-36;-50;-59;-53;-38;-26;-18;-37;-25;-9;7;31;41;34;1;-12;-37;-24;-28;-31;-6;101;464;364;-82;-73;-29;-54;-43;-50;-40;-42;-16;-15;-25;9;-1;-8;23;31;26;42;67;76;73;100;115;115;117;89;61;24;-11;-27;-30;-49;-49;-47;-50;-54;-55;-48;-39;-41;-45;-52;-45;-27;-35;-41;-33;-32;-32;-30;-39;-42;-44;-52;-35;-25;-25;-14;-4;10;29;50;40;18;-3;-23;-20;-26;-20;-12;86;321;458;64;-81;-44;-57;-40;-22;-13;-8;-11;-5;-5;-4;-6;12;19;46;51;66;83;102;105;120;132;133;133;113;80;29;0;-20;-53;-45;-58;-77;-57;-52;-63;-68;-54;-32;-34;-40;-42;-42;-53;-65;-68;-57;-56;-52;-44;-40;-81;-63;-30;-51;-50;-46;-22;1;12;39;33;-21;-23;-57;-59;-41;-59;-52;60;241;364;-11;-158;-52;-48;-46;-63;-41;-19;-4;-10;-6;-4;22;2;32;35;44;62;66;87;131;149;173;176;143;102;71;30;3;-25;-24;-40;-59;-57;-51;-54;-24;-24;-31;-34;-22;-22;-23;-29;-23;-33;-24;-24;-43;-35;-32;-48;-45;-37;-37;-41;-35;-39;-41;0;23;43;43;44;-18;-18;-29;-33;-37;-28;-32;105;383;322;-68;-119;-42;-33;-18;-19;-12;-21;-16;0;-8;-12;6;11;18;40;50;63;60;97;129;121;134;124;120;109;62;38;1;-29;-35;-31;-47;-43;-47;-55;-55;-44;-30;-36;-39;-23;-21;-19;-10;-49;-56;-38;-30;-12;-5;-41;-30;-28;-19;-34;-32;-42;1;26;14;37;59;29;12;-23;-29;-43;-12;-6;58;275;405;123;71;-71;-49;-42;-42;-25;-21;-29;-20;-8;13;9;9;13;10;43;43;67;77;89;111;102;116;135;112;63;37;15;-14;-35;-45;-50;-44;-65;-62;-52;-52;-56;-60;-51;-43;-44;-40;-40;-39;-51;-23;-43;-28;-25;-27;-26;-31;-41;-25;-5;-19;-3;-2;25;37;46;31;-2;-18;-31;-39;-38;-21;-6;179;440;277;-90;-71;-24;-39;-23;-16;-14;-23;-34;-7;-18;-4;13;3;8;35;31;75;60;85;101;137;131;120;126;93;56;17;-29;-31;-63;-75;-53;-65;-72;-69;-59;-41;-41;-80;-59;-39;-42;-42;-67;-68;-52;-50;-49;-52;-81;-55;-49;-55;-38;-48;-49;2;8;26;18;-10;-40;-51;-56;-39;-66;-53;16;161;316;97;-236;-110;-50;-47;-54;-40;-84;-63;-37;-39;-29;-21;-15;-9;-11;16;45;56;73;106;114;138;102;121;120;81;16;4;-46;-66;-82;-82;-87;-83;-85;-85;-83;-81;-69;-60;-66;-57;-59;-74;-82;-74;-55;-65;-55;-56;-76;-72;-62;-60;-38;-55;-17;10;9;25;-15;-47;-57;-50;-67;-34;-33;0;212;224;80;23;-119;-112;-71;-25;-44;-50;-30;-25;-19;-6;-27;-26;19;-10;7;25;42;62;89;108;113;121;116;87;63;14;-14;-50;-75;-82;-85;-81;-73;-78;-89;-89;-80;-59;-61;-63;-59;-52;-48;-58;-64;-47;-49;-65;-62;-60;-58;-52;-44;-55;-57;-49;-43;-30;9;7;10;16;-27;-51;-64;-50;-49;-38;-52;164;417;219;-150;-100;-51;-53;-45;-65;-57;-56;-42;-19;-34;-16;-28;-11;-6;1;13;33;50;73;89;109;127;126;104;74;33;6;-20;-52;-56;-49;-46;-55;-68;-75;-68;-51;-47;-37;-36;-21;-26;-30;-37;-46;-45;-49;-22;-6;-7;-41;-46;-33;-39;-40;-44;-44;-29;13;21;46;59;72;63;24;-10;-7;83;11;-7;26;193;538;358;-83;-28;20;-1;1;3;11;21;28;17;41;40;52;57;59;75;90;118;126;136;162;182;195;186;184;156;105;74;45;28;20;2;4;7;6;-3;9;10;4;13;18;24;30;29;32;11;30;19;15;27;23;9;10;13;6;9;13;12;29;63;57;66;84;94;69;48;41;41;17;23;20;37;138;414;370;-63;-102;-2;-4;-9;12;9;-4;9;9;4;12;19;43;35;58;75;86;115;120;144;167;163;170;156;130;86;38;2;-35;-50;-45;-54;-45;-49;-42;-38;-16;-32;-26;-34;-34;-33;-36;-21;-16;-26;-33;-32;-35;-23;-36;-40;-28;-28;-28;-13;-5;9;32;54;52;41;-11;-17;-14;-22;-32;-27;-13;76;238;398;47;-75;-52;-37;-37;-15;-11;-6;-1;-8;-8;2;8;33;26;30;53;73;79;108;116;123;145;171;155;140;94;52;15;-1;-30;-55;-55;-56;-51;-57;-87;-71;-52;-34;-30;-9;-30;-22;-46;-46;-38;-34;-39;-37;-46;-41;-34;-35;-40;-41;-32;-11;-14;-13;9;36;36;28;-4;-21;-28;-31;-36;-26;-28;66;309;377;9;-151;-54;-72;-52;-30;-20;-18;-18;-21;-12;5;1;1;3;29;38;42;53;68;93;108;103;118;103;89;58;29;-5;-39;-44;-66;-53;-70;-70;-69;-82;-74;-63;-47;-49;-51;-32;-44;-28;-26;-37;-12;-27;-47;-53;-53;-33;-37;-45;-54;-52;-56;-53;-19;2;13;46;35;-13;-34;-39;-20;-36;-48;-49;10;255;417;174;-152;-75;-33;-35;-47;-51;-40;-33;-43;-27;-33;-14;-3;-6;1;5;17;39;44;52;72;88;95;95;95;74;32;0;-52;-53;-67;-65;-85;-97;-73;-64;-74;-84;-79;-75;-70;-56;-56;-50;-49;-46;-51;-41;-42;-45;-49;-42;-24;-29;-42;-33;-29;-30;-26;-8;7;31;34;18;-19;-17;-36;-67;-36;-17;10;163;387;192;-168;-94;-20;-40;-34;-27;-26;-26;-39;-28;-14;-5;10;-4;14;40;58;58;64;87;111;125;127;107;117;89;58;9;-26;-81;-90;-70;-73;-82;-79;-50;-61;-58;-54;-38;-38;-36;-31;-49;-42;-16;-45;-57;-54;-42;-43;-51;-53;-44;-42;-34;-34;-26;13;43;44;16;-13;-28;-32;-50;-40;-35;-24;107;290;277;-49;-128;-57;-15;-35;-33;-43;-29;-24;-23;-12;-3;2;9;12;36;37;52;74;89;124;126;134;122;119;109;67;18;-15;-29;-64;-81;-64;-59;-64;-56;-51;-53;-50;-37;-40;-47;-35;-52;-53;-24;-39;-51;-61;-50;-36;-54;-53;-42;-40;-43;-48;-55;-30;-17;8;39;24;-10;-43;-35;-47;-60;-35;-27;-13;197;398;148;-154;-101;-54;-47;-68;-57;-49;-32;-33;-27;-24;-4;-11;-1;-20;0;19;53;45;59;88;98;100;73;82;69;15;14;-20;-53;-55;-73;-84;-58;-70;-77;-78;-71;-70;-66;-61;-64;-60;-66;-61;-57;-66;-70;-70;-80;-76;-52;-43;-19;-45;-58;-55;-57;-36;-11;2;44;7;-4;-33;-50;-34;-37;-49;-45;34;290;484;107;-44;-68;-92;-70;-51;-39;-19;-37;-42;-20;-11;-8;-10;12;4;24;30;48;74;85;89;95;84;88;87;63;27;-14;-34;-68;-63;-40;-18;-56;-50;-49;-57;-48;-42;-31;-36;-41;-39;-48;-49;-46;-41;-44;-48;-39;-32;-36;-36;-32;-37;-36;-34;-29;1;23;16;44;16;-22;-57;-52;-43;-38;-31;-1;120;383;265;-177;-139;-36;-36;-30;-26;-21;-21;-22;-14;-7;-5;-7;4;23;34;46;57;74;98;109;121;128;127;115;88;44;1;-26;-40;-63;-79;-71;-63;-59;-56;-54;-53;-54;-61;-49;-24;-51;-64;-69;-73;-67;-59;-62;-55;-40;-28;-38;-41;-37;-41;-44;-37;-22;-6;-4;13;47;13;-28;-32;-32;-27;-25;-24;27;135;377;188;-182;-98;-25;-37;-23;-22;-25;-23;-11;-17;-9;5;23;25;25;44;49;63;97;113;136;144;138;121;123;96;60;14;-21;-31;-36;-55;-55;-42;-48;-62;-53;-45;-40;-33;-36;-34;-30;-45;-47;-30;-37;-29;-36;-40;-32;-27;-21;-32;-44;-49;-46;-18;-6;-30;-21;-1;1;31;47;53;53;16;-6;-17;-22;-24;-24;-25;118;440;356;-81;-75;-34;-28;-18;-31;-29;-23;-15;-4;-10;-13;-1;18;24;38;37;48;66;82;108;124;141;122;118;103;73;49;7;-35;-32;-39;-38;-40;-39;-27;-37;-42;-36;-26;-28;-13;-16;-21;-17;-20;-21;-26;2;14;-23;-38;-31;-21;-15;-12;-20;-20;-16;-18;-22;-13;-11;-5;12;19;45;69;70;68;15;-6;-23;-7;-10;0;25;158;490;380;-66;-21;-11;-20;-2;-5;-5;0;-22;-10;-1;5;10;19;27;34;32;67;67;96;107;126;131;127;120;104;68;43;-2;-28;-24;-22;-40;-47;-50;-54;-44;-36;-36;-36;-41;-30;-31;-36;-37;-30;-26;-27;-34;-28;-25;-42;-29;-18;-28;-45;-49;-43;-27;-31;-30;-33;-24;-11;-33;-15;-3;8;24;30;16;-22;-27;-23;-42;-52;-41;-34;140;379;256;-108;-123;-39;-35;-38;-50;-37;-40;-38;-28;-17;-8;-4;-1;10;32;47;40;82;94;105;128;131;113;118;96;64;23;-16;-37;-48;-63;-67;-68;-70;-50;-54;-58;-45;-41;-37;-40;-42;-40;-49;-51;-76;-58;-45;-54;-50;-37;-41;-48;-50;-44;-43;-36;-35;-39;-41;-40;-29;-26;-33;-28;-15;-4;14;25;41;34;3;-4;-30;-21;-29;-32;-10;59;309;393;57;-7;-64;-87;-44;-55;-24;-30;-20;-31;-23;9;1;9;13;12;25;38;45;67;98;108;115;116;116;105;79;46;5;-26;-36;-46;-55;-61;-66;-59;-57;-65;-51;-30;-41;-42;-36;-31;-33;-50;-40;-52;-53;-43;-31;-55;-58;-57;-53;-48;-41;-35;-35;-50;-23;-19;-38;-39;-14;-15;-24;-16;0;6;17;40;40;36;10;-12;-26;-34;-27;-21;-2;190;480;283;-84;-46;-23;-31;-26;-36;-18;-20;-23;-23;-17;0;2;4;12;23;33;58;61;76;93;110;119;112;114;91;48;19;-3;-22;-29;-39;-47;-45;-41;-48;-51;-51;-54;-61;-48;-40;-38;-28;-25;-27;-29;-31;-25;-29;-30;-30;-31;-31;-32;-26;-19;-13;-28;-26;-18;-8;-26;-33;-13;-29;-35;-22;-10;0;17;26;49;59;45;1;-13;-13;-12;-27;-28;0;113;373;361;9;-81;-47;-29;-19;-29;-27;-31;-19;-12;-4;0;-2;9;19;35;50;56;72;95;105;131;135;127;140;108;67;36;-8;-40;-60;-82;-65;-71;-80;-75;-65;-64;-56;-55;-62;-48;-46;-50;-47;-45;-56;-55;-57;-53;-60;-61;-52;-39;-32;-32;-32;-44;-41;-45;-67;-56;-37;-38;-29;-24;-35;-25;13;20;31;36;5;-23;-34;-31;-49;-24;2;17;199;319;143;-198;-93;-70;-31;-29;-16;-5;-19;-17;-10;1;5;14;26;42;44;61;78;98;116;130;148;159;144;142;113;73;33;-3;-27;-50;-58;-61;-66;-57;-49;-47;-42;-49;-43;-33;-33;-35;-34;-30;-43;-43;-38;-33;-34;-36;-44;-36;-36;-36;-38;-43;-43;-30;-28;-25;-26;-29;-28;-25;-20;-13;-2;19;13;48;44;38;-2;-25;-39;-15;-13;0;5;196;450;232;-147;-66;-6;-13;-24;-16;-17;-7;-34;-15;0;-10;10;25;16;24;38;57;76;99;96;114;127;124;122;88;56;20;-9;-27;-24;-50;-62;-48;-50;-47;-50;-51;-46;-41;-33;-27;-28;-25;-28;-21;-41;-46;-36;-34;-28;-28;-26;-21;-36;-49;-43;-37;-31;-32;-33;-20;-22;-19;-22;-17;-11;-17;-29;-7;22;26;61;61;32;-6;-19;-44;-53;-10;-18;22;252;325;221;-159;-70;-83;-54;-21;-29;-30;-29;-19;-14;-16;-17;-2;7;29;22;24;47;64;87;103;104;112;127;125;84;45;11;-9;-28;-47;-48;-47;-55;-58;-62;-56;-46;-47;-45;-49;-50;-46;-59;-44;-44;-42;-41;-38;-36;-34;-33;-36;-41;-44;-46;-43;-39;-40;-31;-36;-43;-50;-30;-29;-41;-37;-35;-26;-7;19;42;51;43;7;-15;-31;-36;-36;-35;-24;56;279;443;129;-32;-60;-87;-44;-43;-28;-21;-26;-26;-10;-20;-4;8;15;16;25;35;53;79;94;100;125;135;116;104;79;32;0;-27;-82;-91;-89;-81;-73;-79;-82;-80;-68;-47;-57;-61;-63;-75;-49;-62;-68;-59;-56;-51;-51;-70;-75;-71;-50;-48;-55;-56;-58;-55;-49;-43;-53;-47;-44;-45;-28;-15;-2;-5;16;20;9;-30;-37;-41;-66;-51;-21;19;184;373;139;-176;-120;-20;-30;-27;-20;-13;-10;-14;-11;-7;3;7;20;22;38;64;73;102;116;125;151;162;160;154;125;63;33;0;-37;-52;-59;-63;-54;-67;-59;-53;-47;-41;-39;-39;-36;-41;-38;-36;-34;-33;-41;-45;-43;-48;-46;-39;-43;-41;-33;-31;-27;-24;-34;-25;-25;-49;-16;-5;8;6;17;52;57;41;5;-19;-22;-30;-19;-11;16;106;364;335;6;-50;-32;-42;-21;-26;-15;-15;-5;-3;-4;-2;9;8;20;29;32;52;87;103;114;128;139;146;147;114;88;44;16;-19;-29;-41;-57;-47;-54;-61;-34;-30;-35;-38;-38;-27;-21;-41;-45;-46;-42;-31;-26;-31;-26;-31;-33;-39;-53;-41;-21;-27;-43;-42;-31;-22;-24;-23;-22;-31;-21;-28;-8;9;23;31;64;40;12;-5;-28;-16;-36;-8;-15;60;345;427;108;9;-57;-31;-40;-24;-27;-32;-26;-19;-17;-27;-12;-9;0;13;16;31;61;63;82;95;112;116;102;99;78;43;15;-31;-61;-28;-35;-43;-61;-48;-54;-61;-55;-37;-34;-43;-41;-41;-38;-36;-47;-36;-37;-31;-28;-33;-26;-32;-47;-34;-21;-40;-34;-27;-45;-19;-22;-28;-19;-20;-22;-27;-19;-13;25;38;49;20;13;-15;-36;-18;-9;-32;-20;57;280;432;165;-143;-49;-84;-52;-36;-17;-12;-11;-14;-15;-12;-2;4;14;34;66;49;60;98;109;128;141;139;145;122;96;62;13;-8;-47;-53;-75;-73;-75;-59;-41;-58;-60;-55;-65;-61;-55;-49;-37;-39;-48;-49;-52;-46;-57;-54;-58;-46;-56;-68;-47;-47;-54;-52;-56;-63;-59;-52;-29;-20;-18;-13;29;47;24;-22;-42;-17;-33;-36;-37;-29;65;215;363;25;-101;-79;-38;-29;-38;-27;-35;-17;-23;-19;-2;-1;0;7;32;52;79;91;89;125;148;162;156;154;148;114;47;14;-27;-43;-55;-69;-60;-58;-67;-61;-57;-49;-49;-40;-29;-24;-30;-28;-39;-46;-51;-35;-24;-41;-42;-33;-31;-27;-19;-16;-22;-20;-23;-32;-37;-30;-14;-10;-14;10;21;38;41;27;-9;-29;-36;-33;-5;-23;-14;171;429;238;-161;-87;-13;-42;-36;-38;-24;-10;-19;-21;-18;-8;-2;3;2;16;36;50;70;90;122;126;128;126;100;88;56;20;-7;-43;-46;-45;-50;-48;-63;-68;-52;-52;-57;-40;-40;-51;-48;-38;-31;-23;-29;-38;-44;-44;-47;-42;-41;-49;-45;-37;-43;-36;-44;-44;-41;-38;-33;-22;-20;-14;-2;34;49;50;37;-1;-11;-19;-34;-31;-31;-40;114;453;415;-48;-37;-38;-26;-45;-29;-16;-24;-31;-17;-10;-5;-1;14;16;6;26;35;51;68;98;120;125;121;105;98;68;17;-6;-22;-35;-43;-47;-62;-52;-56;-66;-65;-58;-53;-60;-59;-39;-29;-50;-46;-55;-58;-48;-48;-48;-49;-48;-47;-48;-37;-30;-36;-33;-29;-34;-39;-35;-36;-22;-28;-5;-13;23;39;47;22;-13;-33;1;-4;-36;-22;-26;147;485;345;-130;-56;-31;-30;-31;-34;-34;-33;-27;-15;-16;-19;-6;-2;11;33;44;52;72;85;96;135;131;118;126;101;61;8;-13;-32;-47;-59;-61;-48;-52;-73;-62;-68;-65;-55;-52;-47;-46;-43;-66;-64;-46;-47;-49;-44;-58;-51;-39;-35;-44;-47;-47;-32;-36;-36;-1;-16;-26;-29;-29;-4;33;46;43;26;-10;-18;-43;-35;-37;-37;-12;111;303;244;-141;-127;-48;-33;-15;-7;-7;-3;-5;-4;10;21;27;27;35;45;62;84;98;122;146;166;160;167;170;152;94;35;10;-8;-33;-50;-54;-56;-56;-60;-46;-45;-36;-35;-31;-30;-21;-19;-27;-29;-33;-32;-42;-33;-34;-38;-32;-38;-27;-20;-35;-33;-26;-29;-32;-9;-13;11;6;32;48;38;18;1;-18;-14;-31;-34;-25;29;213;368;131;-155;-98;-35;-39;-34;-23;-7;-13;-11;-13;-13;-16;-10;3;17;46;53;56;71;89;115;135;153;140;128;94;61;12;-21;-56;-70;-73;-66;-68;-63;-53;-51;-46;-40;-56;-59;-41;-49;-32;-36;-43;-40;-52;-50;-44;-48;-58;-45;-40;-32;-39;-41;-41;-39;-17;-34;5;-27;-26;-22;-18;5;44;37;33;-7;-37;-48;-32;-51;-38;-28;72;313;411;72;-58;-71;-58;-46;-62;-53;-51;-49;-31;-19;-21;-23;-9;-11;3;13;21;28;54;76;87;90;99;102;92;56;26;-14;-46;-61;-72;-86;-81;-79;-74;-64;-70;-76;-66;-63;-66;-52;-40;-47;-60;-72;-69;-57;-46;-57;-74;-65;-53;-63;-70;-67;-59;-53;-54;-45;-47;-56;-41;-37;-35;-30;-24;-3;19;52;30;-25;-34;-26;-42;-43;-27;-10;72;378;397;37;-123;-48;-6;-51;-23;-24;-23;-20;-18;-9;-9;-18;-3;0;7;27;46;56;84;101;117;112;120;120;109;65;25;0;-46;-38;-53;-70;-65;-61;-75;-63;-51;-47;-54;-53;-48;-49;-44;-37;-45;-29;-41;-49;-49;-52;-48;-44;-49;-42;-42;-43;-51;-54;-51;-46;-43;-46;-27;-33;-46;-25;23;12;25;27;-22;-50;-47;-45;-56;-54;-32;39;240;402;51;-55;-109;-30;-76;-60;-77;-51;-22;-32;-47;-38;-23;5;28;14;9;34;61;95;100;120;137;134;119;126;80;42;21;-20;-49;-79;-77;-65;-74;-72;-72;-43;-36;-51;-45;-39;-51;-60;-39;-35;-43;-49;-52;-47;-33;-15;-21;-41;-29;-25;-30;-22;-29;-21;-19;-33;-12;0;2;1;36;41;42;51;26;-20;-18;-7;-21;-26;-9;46;229;433;168;-108;-52;-24;-8;-12;-3;7;-8;12;8;11;20;26;31;36;47;64;84;110;123;144;140;147;141;152;102;64;39;7;-9;-34;-37;-44;-70;-31;-32;-34;-33;-28;-32;-31;-15;-1;-1;-14;-19;-2;-1;-12;-12;2;-26;-26;-19;-21;-6;-19;-35;-23;-4;-10;-21;-1;-5;-9;1;3;12;59;71;30;-5;-11;-7;9;-23;-6;31;188;487;310;-100;-59;-7;-15;-23;-24;-23;-31;-14;-5;3;15;3;10;15;19;35;55;80;78;103;123;136;137;122;109;62;29;-2;-16;-27;-40;-54;-47;-49;-48;-37;-33;-34;-45;-44;-33;-47;-41;-27;-23;-29;-37;-34;-34;-35;-36;-39;-41;-44;-16;-30;-35;-25;-26;-33;-34;-25;-37;-5;-27;0;36;45;45;47;0;-15;-22;-35;-34;-19;9;130;455;366;-86;-88;-24;-25;-28;-25;-32;-32;-12;-12;-2;0;-12;-2;15;30;54;77;78;83;114;138;135;124;117;119;57;22;-9;-33;-48;-73;-74;-68;-78;-80;-74;-64;-55;-46;-51;-43;-26;-22;-36;-58;-57;-54;-52;-49;-47;-44;-36;-51;-71;-68;-43;-46;-55;-46;-41;-42;-37;-15;9;37;34;25;13;-39;-39;-29;-24;-36;-20;18;169;368;142;-225;-108;-20;-37;-46;-39;-24;-11;-15;-9;21;17;0;15;11;46;69;82;102;135;153;166;178;150;137;112;79;35;-3;-27;-36;-54;-77;-58;-62;-46;-29;-44;-49;-34;-31;-22;-29;-39;-26;-9;-20;-33;-37;-38;-36;-41;-37;-37;-19;-39;-56;-36;-24;-34;-44;-19;-17;-5;-15;16;49;44;0;-2;-12;-25;-42;-36;-21;64;308;389;85;-62;-55;-16;-44;-60;-47;-43;-43;-37;-23;-10;1;4;11;14;23;44;46;69;93;117;123;99;104;115;74;20;-14;-14;-46;-60;-68;-71;-81;-79;-76;-59;-43;-50;-47;-43;-39;-3;-22;-59;-63;-53;-51;-60;-56;-40;-55;-58;-37;-39;-63;-51;-31;-21;-37;-48;-46;-35;-28;-14;5;30;33;36;14;-15;-17;-31;-38;-38;-19;20;239;441;232;-110;-80;-3;-53;-41;-49;-55;-39;-20;-3;-29;-15;-9;2;24;29;42;59;62;72;98;127;124;112;119;89;35;10;-6;-25;-50;-55;-66;-54;-46;-67;-67;-55;-45;-33;-41;-45;-43;-48;-52;-35;-37;-38;-38;-60;-48;-40;-44;-53;-54;-69;-102;-71;-41;-40;-52;-49;-32;-31;-22;-21;24;29;37;31;-14;-27;-30;-13;-45;-47;-26;58;259;370;80;-22;-56;-12;-42;-26;-25;-27;-27;-22;17;14;4;3;16;35;47;49;66;95;119;134;150;152;142;130;96;51;16;-5;-56;-35;-49;-47;-49;-63;-51;-47;-54;-47;-35;-55;-59;-50;-48;-40;-48;-62;-57;-60;-40;-49;-47;-47;-42;-33;-32;-40;-36;-44;-56;-59;-47;-5;-29;-22;9;32;53;38;-4;-19;-23;-29;-51;-19;14;75;278;294;-16;-167;-78;-69;-40;-34;-30;-25;-14;-23;-35;-10;1;20;15;12;44;43;59;76;99;118;125;145;133;96;55;20;-24;-40;-55;-60;-86;-98;-97;-73;-60;-57;-52;-59;-46;-43;-57;-51;-46;-39;-42;-42;-37;-37;-41;-33;-30;-30;-38;-50;-48;-37;-32;-35;-7;-26;-33;-20;-13;5;24;43;51;12;-20;-25;-19;-43;-31;-25;12;157;493;345;-101;-63;-12;-34;-16;-35;-32;-27;-15;-6;-2;7;20;1;13;27;41;49;62;91;112;118;115;115;109;101;68;28;4;-18;-51;-46;-62;-66;-60;-51;-27;-24;-36;-39;-40;-29;-23;-24;-27;-15;-10;-25;-31;-35;-32;29;9;-11;-4;-4;-13;-22;-30;-26;-10;-15;-14;3;2;33;43;62;47;32;17;-21;-6;-11;-16;-7;58;287;547;179;-152;-41;-45;-46;-26;5;4;-7;-4;0;28;25;21;25;39;82;91;84;123;116;138;146;149;160;143;94;56;10;-17;-45;-54;-60;-53;-56;-60;-66;-71;-42;-44;-48;-54;-42;-28;-28;-37;-49;-47;-43;-33;-36;-51;-43;-28;-25;-44;-91;-48;-46;-39;-6;-45;-26;10;37;31;21;-7;-18;-40;-39;-48;-19;10;67;327;319;-81;-166;-48;-57;-26;-45;-30;-29;-21;-5;0;6;18;38;28;45;41;57;89;104;140;149;154;154;147;131;86;34;1;-20;-34;-46;-60;-70;-62;-52;-56;-54;-46;-51;-40;-31;-40;-34;-16;-61;-51;-43;-28;-41;-50;-61;-44;-22;-47;-43;-41;-57;-35;-34;-34;-34;-19;9;20;37;62;16;-24;-31;-12;-18;-24;-28;-6;178;493;287;-120;-83;-24;-36;-36;-40;-30;-18;-12;-23;-14;-10;1;-6;14;30;15;42;68;116;120;91;93;123;122;81;53;40;2;-30;-47;-65;-40;-51;-60;-69;-58;-51;-45;-37;-55;-48;-40;-32;-28;-40;-28;-37;-40;-43;-46;-35;-25;-32;-37;-33;-37;-35;-34;-33;-43;-20;-24;-22;12;25;39;42;15;-35;-31;-26;-45;-31;-9;58;302;493;159;2;-53;-17;-27;-24;-35;-27;-14;-14;-15;-16;12;11;14;19;33;62;78;80;118;124;131;137;137;124;95;42;-1;-6;-45;-60;-73;-76;-73;-65;-55;-54;-54;-46;-51;-61;-69;-58;-48;-46;-44;-49;-47;-47;-48;-45;-52;-56;-53;-70;-59;-60;-41;-36;-53;-44;-42;-14;14;11;16;21;29;-43;-46;-41;-47;-39;-46;-12;108;309;244;-91;-118;-80;-62;-48;-48;-35;-32;-25;-23;1;0;-4;30;23;27;40;56;83;108;129;134;142;156;181;136;64;49;-2;-38;-53;-68;-58;-62;-61;-67;-70;-49;-44;-41;-48;-52;-52;-30;-31;-38;-51;-30;-37;-48;-51;-49;-38;-21;-30;-52;-60;-33;-32;-34;-22;-26;-18;-16;76;49;41;34;15;-5;-21;-12;-32;-16;-17;19;249;239;138;-132;-61;-21;-28;-27;-40;-43;-19;-12;-5;8;21;24;13;24;32;51;55;94;109;131;143;137;128;144;121;48;15;-12;-21;-28;-35;-55;-60;-53;-46;-34;-36;-33;-29;-16;-32;-32;-35;-47;-54;-46;-40;-34;-44;-34;-36;-36;-50;-40;-13;-22;-29;-23;-23;-26;-32;-52;-12;-13;5;28;43;58;58;41;-24;-27;-6;-6;-8;-26;77;373;451;107;-49;-37;-24;-30;-28;-16;-8;-16;-8;3;-12;28;15;11;29;41;54;65;89;93;107;106;134;124;104;83;41;18;-20;-44;-52;-43;-33;-54;-61;-55;-43;-35;-34;-47;-46;-13;-62;-43;-30;-28;-34;-48;-40;-36;-44;-51;-43;-40;-32;-16;-12;-32;-28;-25;-28;-32;-26;-13;-24;-3;18;36;61;37;-7;-22;-31;-24;-38;-27;-23;169;484;307;-83;-54;-34;-48;-27;-15;-11;-22;-17;-10;-14;11;0;-6;6;17;35;47;66;97;93;102;123;123;131;104;68;28;-3;-29;-45;-49;-43;-33;-38;-45;-53;-57;-60;-49;-40;-37;-32;-29;-29;-56;-58;-47;-53;-55;-49;-35;-28;-48;-66;-41;-48;-52;-39;-48;-46;-40;-28;-18;-2;-3;7;47;31;11;-9;-47;-46;-49;-54;-44;-24;84;326;290;-123;-121;-33;-34;-49;-40;-38;-32;-35;-48;-44;-28;-22;-14;3;20;29;39;67;88;106;119;132;157;117;98;51;7;-11;-56;-76;-79;-81;-77;-84;-80;-73;-67;-65;-81;-74;-64;-51;-49;-54;-76;-69;-63;-61;-56;-61;-66;-68;-52;-58;-65;-49;-42;-48;-47;-51;-36;-36;28;14;36;41;35;-11;-44;-35;-23;-45;-39;-33;104;331;289;-87;-125;-42;-78;-57;-34;-28;-29;-21;-25;-15;-14;-2;-3;4;17;30;58;89;81;100;126;121;133;131;120;82;23;-11;-42;-67;-65;-75;-78;-69;-67;-53;-44;-73;-59;-35;-39;-38;-39;-54;-27;-37;-54;-50;-34;-31;-35;-41;-44;-37;-43;-51;-45;-37;-34;-39;-19;-20;-22;-13;-2;26;34;36;-3;-37;-36;-40;-42;-44;-18;76;309;433;93;-24;-62;-63;-39;-46;-40;-35;-21;-18;-21;-28;-15;-4;6;27;24;32;44;68;94;105;118;125;108;98;63;23;-10;-24;-45;-67;-72;-66;-72;-71;-46;-57;-68;-55;-51;-53;-45;-35;-44;-49;-48;-41;-48;-43;-53;-64;-58;-40;-36;-33;-42;-51;-51;-35;-29;-44;-59;-43;-31;-37;-42;-10;23;43;43;10;-33;-41;-24;-64;-42;-25;-16;206;490;207;-186;-63;-54;-55;-49;-52;-52;-47;-36;-29;-24;-20;-13;-9;-4;17;28;39;58;65;94;103;102;112;112;79;33;-8;-19;-31;-66;-77;-59;-53;-56;-65;-63;-66;-63;-55;-50;-42;-53;-67;-46;-42;-61;-57;-37;-42;-49;-59;-60;-55;-33;-54;-52;-57;-45;-37;-50;-37;-37;-46;-35;-39;-31;-3;0;34;27;26;-28;-45;-36;-43;-53;-40;12;159;429;269;-129;-89;-42;-42;-47;-40;-37;-43;-22;-13;-20;-8;3;-3;16;29;38;51;74;89;100;119;144;130;113;89;61;18;-20;-45;-69;-66;-89;-94;-90;-83;-82;-76;-67;-65;-68;-55;-42;-55;-56;-52;-50;-59;-79;-70;-53;-61;-72;-70;-61;-57;-53;-56;-64;-43;-58;-93;-40;-34;-22;-4;-10;25;26;11;-24;-31;-34;-40;-38;-36;18;134;362;200;-168;-139;-34;-47;-22;-13;-27;-41;-4;-7;-15;-7;2;13;23;21;52;68;91;56;99;137;141;149;135;111;64;30;-2;-29;-43;-44;-51;-67;-56;-67;-63;-55;-50;-45;-27;-43;-34;-27;-33;-31;-10;-28;-36;-51;-51;-39;-25;-25;-51;-67;-35;-36;-41;-44;-51;-43;-43;-43;-37;-35;-25;0;18;40;38;5;-12;-23;-10;-45;-50;-39;6;264;449;187;-140;-78;-23;-22;-41;-38;-37;-13;-12;-32;-20;-5;13;28;17;25;38;51;68;96;119;97;106;111;108;94;44;9;-16;-29;-44;-62;-71;-60;-50;-57;-35;-48;-41;-54;-49;-38;-45;-42;-42;-50;-50;-61;-42;-37;-33;-50;-60;-53;-45;-35;-44;-59;-53;0;-32;-47;-66;-45;-23;-37;-5;33;35;25;12;-18;-49;-48;-12;-16;-45;27;242;271;186;-108;-95;-25;-37;-28;-39;-30;-31;-16;6;-40;-32;-19;-3;14;36;49;59;75;91;130;118;119;136;118;84;29;-1;-16;-38;-56;-83;-60;-86;-77;-71;-71;-62;-56;-49;-53;-49;-43;-51;-59;-65;-69;-62;-54;-47;-64;-55;-47;-44;-42;-42;-43;-36;-30;-46;-50;-18;4;-9;-7;2;27;24;-33;-35;-52;-43;-30;-51;-9;82;276;328;-43;-90;-54;-58;-29;-33;-30;-23;-20;-6;-1;2;6;15;16;28;51;68;87;130;140;167;149;144;147;136;94;49;12;-29;-39;-55;-52;-41;-54;-56;-53;-55;-37;-29;-31;-38;-43;-26;-13;-31;-48;-39;-41;-17;-26;-36;-33;-43;-26;-18;-52;-38;-26;-23;-19;-13;5;1;-12;13;34;48;45;15;-10;-27;-17;-23;-33;-23;35;243;438;156;-121;-67;-33;-38;-42;-31;-20;-6;-13;-10;5;9;24;29;35;33;43;54;78;94;112;133;126;131;122;93;50;22;-7;-32;-45;-53;-52;-50;-63;-52;-40;-36;-40;-41;-41;-43;-53;-39;-40;-37;-37;-29;-31;-33;-36;-30;-39;-40;-40;-39;-43;-34;-29;-24;-39;-23;-13;-19;-16;-4;8;46;54;30;0;-27;-48;-32;-11;-41;-11;169;507;352;-141;-75;-21;-23;-18;-41;-9;-21;-25;-19;-4;8;2;9;7;14;41;62;67;93;105;116;147;114;118;108;71;22;-4;-20;-29;-42;-37;-34;-74;-81;-60;-48;-28;-29;-29;-30;-30;-31;-31;-32;-23;-19;-28;-37;-31;-25;-20;-26;-28;-44;-45;-25;-45;-34;-21;-27;-21;-13;-19;-12;19;11;24;54;63;0;-25;-15;-15;-34;-17;7;127;438;382;-61;-114;-14;-26;-32;-27;-28;-32;4;-14;-9;11;18;18;16;44;53;64;71;96;135;143;161;153;141;126;77;35;-5;-31;-49;-72;-57;-79;-71;-59;-58;-60;-57;-41;-27;-32;-41;-51;-44;-47;-39;-54;-75;-71;-62;-52;-49;-59;-54;-59;-69;-67;-57;-55;-60;-68;-52;-48;-6;20;6;13;-13;-38;-49;-60;-63;-61;-16;1;159;370;114;-10;-119;-40;-54;-33;-20;-21;-23;-24;-17;-3;12;20;10;24;65;72;73;95;116;138;157;160;161;150;103;56;17;-7;-38;-48;-46;-58;-61;-53;-46;-54;-52;-39;-24;-17;-31;-43;-38;-32;-33;-34;-36;-41;-35;-23;-32;-28;-15;-41;-35;-21;-28;-21;-19;-22;-7;-5;18;26;48;49;46;-15;-30;-7;-22;-15;-6;-8;205;447;218;-120;-67;-5;-21;-10;2;-7;-27;-14;2;0;2;21;33;9;36;72;66;86;108;116;138;144;146;141;106;57;31;-13;-35;-40;-57;-68;-67;-57;-50;-54;-36;-38;-39;-41;-40;-29;-42;-42;-21;-32;-39;-35;-43;-39;-29;-38;-35;-27;-29;-21;-15;-16;-24;-23;-14;-22;-29;3;10;34;42;59;52;-11;-27;-14;-25;-30;-29;-21;197;500;279;-89;-32;-23;-38;-30;-48;-44;-30;-21;-3;6;8;13;22;27;26;31;51;58;84;110;120;132;122;134;76;57;44;-8;-35;-41;-48;-54;-59;-38;-53;-54;-47;-45;-32;-48;-55;-48;-48;-35;-25;-26;-33;-38;-44;-48;-40;-36;-54;-37;-45;-45;-30;-24;-39;-52;-20;-29;-30;-7;-20;0;25;47;53;42;2;-15;-22;-28;-32;-25;12;88;397;429;46;-45;-47;-54;-33;-22;-25;-26;-22;-7;2;5;6;12;22;44;30;46;89;88;112;129;140;148;148;140;97;51;6;-14;-32;-19;-36;-46;-43;-65;-70;-48;-39;-43;-32;-19;-23;-45;-33;-26;-23;-32;-36;-42;-36;-54;-61;-59;-43;-28;-22;-34;-35;-19;-16;-24;-27;-28;-19;-6;20;36;40;40;7;-30;-36;-43;-36;-25;-21;14;192;378;156;-208;-122;-63;-54;-31;-27;-23;-21;-13;-13;-1;-1;0;15;20;29;46;71;91;90;111;140;146;142;132;91;28;7;-42;-59;-66;-73;-86;-96;-75;-77;-74;-54;-57;-56;-68;-37;-46;-50;-39;-39;-41;-77;-59;-40;-39;-45;-44;-38;-29;-22;-39;-33;-33;-21;-24;-20;1;30;25;35;40;1;-30;-32;-22;-26;-31;-5;64;243;418;39;-87;-62;-23;-36;-23;-10;-18;-21;-13;-2;0;20;19;25;38;43;63;86;106;132;134;153;162;151;141;119;69;15;-34;-41;-57;-50;-50;-60;-63;-54;-43;-49;-50;-45;-33;-29;-38;-39;-32;-27;-46;-34;-24;-37;-50;-39;-29;-22;-33;-42;-30;-22;-23;-25;-30;-25;3;5;25;46;46;26;-16;-23;-24;-15;-28;11;13;170;448;213;-174;-71;-25;-42;-61;-54;-43;-48;-44;-46;-44;-25;-35;-12;-17;-4;10;33;42;55;71;64;92;86;80;59;14;-18;-50;-77;-110;-112;-111;-119;-121;-121;-121;-112;-106;-106;-112;-103;-107;-126;-122;-130;-125;-111;-127;-125;-125;-127;-139;-136;-141;-147;-138;-121;-117;-129;-127;-123;-113;-92;-59;-44;-50;-60;-103;-110;-116;-125;-115;-109;-80;61;471;332;-171;-118;-105;-112;-106;-97;-48;-71;-90;-90;-73;-62;-56;-44;-35;-23;10;24;40;48;66;87;99;107;89;68;32;2;-32;-55;-81;-73;-79;-90;-84;-74;-62;-55;-57;-44;-51;-41;-36;-45;-43;-59;-53;-48;-44;-39;-58;-51;-32;-15;-25;-42;-60;-39;-27;-35;-36;-22;-4;13;29;37;45;28;-14;-30;-27;-8;-28;-19;24;194;557;353;-137;-50;10;-11;-4;-16;-4;2;4;20;33;22;35;48;41;64;86;104;123;146;177;183;197;193;174;151;109;77;37;8;-3;-25;-33;-11;-15;-13;3;10;0;16;-5;-1;4;-6;1;10;16;27;2;-5;8;18;15;13;20;27;35;16;11;21;46;48;74;68;93;74;42;24;11;20;14;16;64;92;297;490;161;-14;-44;-34;-3;38;3;2;-1;11;22;24;27;35;56;61;60;80;108;133;156;182;203;197;155;155;132;100;38;-10;-27;-29;-47;-49;-43;-35;-40;-36;-30;-18;-10;-13;-16;-14;-17;-11;-24;-29;-30;-30;-31;-25;-27;-33;-38;-33;-18;-40;-36;-8;-12;1;37;36;47;44;21;-20;-18;-3;-32;-12;-20;16;232;400;163;-150;-53;-15;-20;-21;-27;-9;-5;-16;-8;0;12;18;18;28;43;55;66;86;117;134;144;164;160;150;98;49;19;-11;-29;-53;-61;-32;-37;-47;-54;-54;-49;-42;-57;-48;-39;-37;-43;-49;-43;-45;-35;-40;-50;-35;-33;-51;-15;-28;-39;-45;-38;-29;-50;-39;-34;-26;-3;5;38;38;24;-21;-24;-50;-63;-38;-29;10;199;464;245;-130;-70;-13;-56;-42;-53;-39;-33;-25;-22;-18;-15;-10;-6;0;24;14;38;71;65;99;117;107;122;118;94;36;-4;-12;-48;-57;-46;-47;-52;-51;-43;-51;-39;-53;-60;-36;-39;-50;-56;-38;-45;-43;-31;-27;-26;-31;-36;-41;-46;-44;-48;-55;-35;-36;-47;-47;-39;-37;-26;-7;-25;-15;21;91;36;-19;-35;-31;-21;-39;-47;-32;105;425;397;16;-78;-46;-42;-42;-33;-34;-8;-15;-31;-42;-34;-31;-14;2;12;28;35;45;57;106;145;103;107;119;91;53;22;-8;-36;-49;-40;-44;-43;-67;-77;-73;-64;-62;-57;-42;-49;-63;-54;-47;-49;-51;-47;-43;-58;-62;-44;-41;-62;-59;-35;-34;-38;-29;-39;-17;-36;-29;-22;-29;-22;-26;-9;9;39;50;29;-33;-40;-22;-50;-28;-21;8;185;483;302;-89;-72;-18;-54;-32;-36;-37;-34;-29;-11;-27;-9;15;19;28;34;41;57;78;99;119;136;151;135;126;113;69;51;-6;-28;-46;-73;-81;-54;-52;-63;-65;-55;-46;-42;-48;-46;-42;-34;-28;-44;-52;-39;-41;-38;-32;-31;-36;-39;-35;-35;-34;-36;-31;-19;-27;-38;-24;-20;-14;1;25;43;36;34;5;-18;-27;-27;-12;-24;-24;-3;154;400;206;-191;-74;-38;-46;-28;-21;-17;-14;-4;11;17;-2;17;18;31;44;51;65;79;116;147;141;153;156;152;117;83;48;-25;-38;-67;-72;-67;-62;-63;-58;-61;-42;-32;-46;-54;-44;-39;-52;-52;-43;-49;-49;-31;-49;-37;-28;-44;-50;-25;-44;-39;-36;-40;-36;-35;-23;-11;-42;-8;13;49;56;27;-11;-42;-35;-23;-24;-25;1;100;330;358;-35;-99;-35;-46;-30;-19;-14;-21;-8;-7;-3;21;16;16;16;14;36;48;68;91;119;122;124;147;108;100;71;24;19;-17;-61;-70;-66;-57;-58;-69;-58;-63;-61;-66;-61;-54;-50;-53;-58;-59;-55;-60;-51;-39;-47;-56;-54;-54;-53;-57;-58;-43;-59;-73;-62;-42;-23;-40;-39;-12;-25;27;43;29;-19;-32;-35;-45;-46;-50;-45;81;392;459;-1;-95;-56;-20;-43;-44;-43;-30;-18;-20;-28;-26;-16;-1;0;2;19;37;63;62;74;119;138;111;116;103;68;36;7;-22;-61;-73;-62;-69;-57;-51;-51;-47;-55;-64;-58;-66;-64;-57;-52;-52;-52;-44;-42;-34;-42;-49;-53;-47;-50;-44;-44;-44;-33;-38;-63;-27;-35;-33;-36;-13;49;41;39;38;20;-12;-31;-50;-8;-16;-19;-1;221;496;239;-171;-75;-1;-47;-64;-54;-51;-40;-19;-20;-14;-11;-2;15;19;12;38;64;79;92;106;126;119;133;123;98;46;13;-7;-14;-41;-56;-52;-43;-37;-43;-51;-42;-38;-34;-33;-47;-38;-20;-26;-47;-42;-24;-38;-40;-39;-44;-32;-35;-40;-46;-27;-11;-8;-17;-25;-25;-25;-36;-17;-21;-3;22;34;58;44;14;2;-26;-12;-31;-3;18;73;338;454;121;-25;-55;-47;-35;0;-29;-29;-13;-5;-11;-6;3;17;30;41;51;66;87;107;120;135;137;149;136;133;119;42;7;-15;-51;-61;-63;-42;-40;-70;-67;-49;-41;-53;-50;-53;-49;-48;-49;-53;-49;-54;-63;-63;-46;-42;-57;-31;-30;-46;-49;-45;-47;-39;-34;-36;-35;-24;-1;8;34;37;38;-30;-43;-59;-37;-30;-25;14;186;351;123;-194;-117;-16;-44;-29;-37;-27;-10;-14;-12;9;11;10;12;24;32;36;90;102;119;137;147;169;169;147;108;45;12;-14;-45;-47;-66;-78;-62;-48;-64;-72;-69;-51;-50;-60;-56;-41;-46;-48;-49;-40;-55;-59;-48;-40;-40;-41;-38;-39;-45;-39;-54;-58;-45;-35;-36;-22;3;17;31;18;4;-24;-47;-65;-45;-38;-26;40;282;454;99;-18;-83;-99;-57;-53;-43;-41;-34;-36;-27;-1;4;7;-1;9;17;30;62;72;91;105;111;121;108;107;88;43;-6;-22;-59;-58;-65;-56;-60;-60;-59;-66;-60;-71;-55;-36;-37;-40;-39;-36;-53;-56;-42;-43;-44;-38;-47;-48;-38;-22;-41;-32;-32;-28;-27;-32;-29;-6;33;36;46;41;12;-2;-32;-32;-32;-16;-7;107;430;388;17;-86;-50;-48;-39;-22;-22;-30;-23;-6;-16;-8;-1;4;19;32;22;44;76;90;100;117;110;144;139;129;73;34;1;-32;-47;-56;-60;-53;-42;-47;-44;-63;-62;-40;-40;-29;-33;-30;-25;-21;-27;-30;-33;-38;-40;-42;-38;-31;-32;-39;-51;-30;-16;-26;-16;-39;-5;2;-8;28;59;39;-9;-25;-40;-40;-26;-33;-10;157;478;359;-96;-76;-35;-31;-34;-21;-23;-21;-4;0;19;0;4;1;25;37;65;74;91;95;114;137;153;144;145;108;72;32;-2;-23;-48;-70;-68;-56;-54;-54;-51;-49;-58;-55;-51;-39;-36;-36;-37;-41;-38;-39;-34;-33;-49;-54;-52;-44;-40;-39;-58;-51;-37;-26;-16;-33;-4;0;21;37;27;-19;-37;-36;-44;-39;-26;4;100;380;298;-140;-160;-54;-40;-8;-34;-27;-23;-18;-2;-12;-7;8;8;33;38;39;70;105;105;128;155;159;163;164;119;90;36;-18;-45;-61;-64;-59;-69;-68;-75;-73;-70;-45;-32;-45;-37;-40;-34;-33;-42;-40;-59;-55;-58;-39;-35;-55;-46;-32;-33;-35;-42;-31;-37;-6;2;6;36;42;39;-4;-30;-34;-42;-34;-25;-16;101;339;362;-24;-93;-44;-64;-30;-46;-40;-44;-16;-7;-10;-11;-9;21;37;43;38;58;78;101;130;148;149;114;139;127;81;38;0;-31;-47;-64;-71;-70;-64;-50;-50;-51;-54;-51;-37;-35;-63;-55;-41;-40;-41;-41;-62;-63;-71;-48;-32;-47;-48;-48;-53;-47;-37;-42;-42;-32;-23;-6;-7;24;36;16;-24;-36;-13;-36;-30;-20;0;233;491;202;-159;-79;-15;-39;-48;-27;-54;-57;-28;-19;-21;-11;-8;1;9;15;23;47;67;85;111;113;139;140;111;93;46;2;-25;-44;-67;-65;-66;-74;-65;-62;-64;-60;-49;-33;-49;-39;-60;-54;-39;-66;-49;-44;-44;-76;-59;-51;-50;-47;-46;-49;-44;-45;-29;26;-32;-12;-20;14;28;45;46;-12;-55;-44;-48;-83;-89;-68;44;339;406;-17;-178;-103;-156;-175;-185;-192;-164;-182;-169;-151;-150;-147;-135;-123;-117;-102;-81;-43;-33;-33;0;22;22;13;19;-12;-48;-97;-98;-129;-140;-163;-143;-118;-119;-124;-127;-124;-119;-124;-108;-103;-116;-97;-97;-113;-116;-107;-106;-96;-92;-100;-97;-85;-83;-65;-65;-74;-63;-60;-71;-76;-47;-12;-4;4;-17;-58;-62;-50;-68;-37;-42;-22;181;385;183;-201;-113;-23;-64;-52;-39;-64;-47;-25;-44;-27;-19;-10;2;19;32;45;69;82;100;133;154;152;164;150;117;54;0;-22;-32;-45;-54;-73;-57;-60;-52;-48;-50;-48;-46;-36;-32;-58;-29;-39;-37;-39;-29;-36;-24;-56;-48;-36;-43;-34;-31;-25;-26;-31;7;35;43;53;32;21;10;-22;-21;-23;-16;-14;54;273;433;111;-20;-61;-34;-28;-61;-42;-11;-22;-10;-3;19;9;7;10;31;56;63;84;103;120;143;154;165;156;151;101;47;25;-7;-34;-43;-54;-66;-50;-55;-57;-38;-43;-26;-23;-24;-30;-15;-28;-33;-29;-21;-28;-22;-32;-19;-33;-17;-18;-16;-39;-36;-30;-23;-17;16;15;51;47;36;5;-8;-12;-28;-19;-6;-1;156;487;385;-40;-45;-21;-19;-11;2;8;-7;-5;-5;1;19;13;26;17;43;57;71;93;94;126;136;147;145;129;126;87;28;8;-12;-27;-36;-44;-49;-50;-34;-61;-52;-20;-46;-40;-27;-54;-35;-33;-33;-41;-38;-9;-30;-40;-35;-27;-23;-28;-37;-36;-21;-21;-8;2;30;42;47;39;-4;-19;-28;-23;-21;-13;28;158;470;355;-62;-82;-25;-36;-47;-41;-38;-34;-22;-4;1;18;12;-12;15;33;60;60;80;92;131;140;136;143;143;120;79;14;-7;-41;-50;-45;-40;-62;-58;-64;-35;-44;-44;-49;-45;-51;-50;-40;-15;-31;-48;-33;-47;-53;-48;-36;-34;-46;-37;-39;-46;-42;-33;-22;-24;11;36;59;63;18;-33;-26;-25;-34;-29;-19;84;317;469;97;-39;-42;-32;-32;-16;-19;-13;-21;-23;0;11;14;2;13;48;45;45;71;112;129;131;147;157;161;129;92;51;15;-37;-54;-61;-87;-67;-64;-55;-55;-61;-20;-35;-42;-35;-36;-37;-51;-52;-47;-36;-58;-55;-61;-52;-42;-43;-40;-39;-37;-28;-22;1;0;23;37;37;8;-21;-27;-30;-18;-20;-2;106;382;334;-114;-120;-36;-21;-21;-29;-18;-14;-4;13;-8;-5;17;26;51;43;32;54;89;116;150;161;166;179;147;129;81;33;33;-24;-46;-59;-57;-48;-50;-65;-50;-26;-28;-47;-39;-22;-40;-44;-31;-29;-37;-43;-37;-11;-30;-38;-36;-27;-15;-48;-25;-26;-8;-7;6;19;43;61;35;-24;-19;7;-25;-28;-17;41;274;459;194;-124;-63;-44;-24;-43;-10;-20;-16;-12;-10;26;-2;-16;-6;12;23;42;61;71;104;111;122;140;117;125;105;40;5;-21;-29;-36;-66;-66;-61;-71;-63;-58;-63;-25;-24;-61;-51;-54;-54;-43;-28;-41;-42;-67;-53;-43;-44;-46;-50;-41;-32;-41;-37;-10;-16;0;33;33;23;-19;-42;-40;-46;-46;-29;-15;147;506;345;-121;-108;-39;-33;-38;-33;-34;-46;-21;-22;-17;-13;-16;17;19;19;36;45;73;89;101;127;133;124;125;104;67;11;-23;-42;-49;-52;-67;-61;-53;-58;-38;-61;-54;-51;-35;-29;-36;-58;-45;-58;-59;-62;-52;-43;-36;-70;-62;-50;-38;-13;-31;-43;-35;-6;-2;-18;19;33;12;-19;-16;-24;-69;-55;-37;-15;105;442;372;-111;-94;-33;-50;-31;-50;-57;-40;-8;-11;-8;7;12;6;12;32;49;64;67;90;115;139;135;134;139;96;67;17;-13;-50;-81;-79;-74;-56;-64;-72;-51;-53;-54;-60;-66;-47;-39;-47;-54;-58;-48;-55;-47;-52;-74;-43;-46;-50;-45;-30;-32;-9;22;-3;27;39;13;-15;-14;-32;-30;-44;-22;56;215;398;91;-59;-127;-23;-37;-45;-21;-30;-32;-14;14;-22;-19;16;47;64;42;58;86;107;137;166;162;138;163;152;102;52;22;-32;-57;-45;-88;-75;-72;-57;-40;-64;-68;-52;-49;-38;-35;-43;-80;-63;-53;-53;-40;-70;-74;-51;-62;-40;-47;-49;-58;-57;-16;38;25;16;24;-6;-30;-53;-23;-68;-62;-34;86;357;365;48;-128;-91;-105;-60;-42;-31;-21;-38;-28;-20;-12;-34;-19;21;42;27;33;59;83;90;113;132;127;112;102;65;26;-9;-37;-36;-52;-99;-85;-47;-62;-74;-57;-44;-4;-50;-59;-45;-50;-22;-52;-57;-39;-42;-53;-59;-42;-22;-40;-47;-45;-31;-32;-46;-14;17;27;60;43;0;-23;-9;-46;-59;-46;-2;152;471;375;-28;-94;-44;-34;-35;-30;-30;-37;-18;-11;-11;-13;-10;5;16;24;33;46;79;95;99;111;122;129;124;109;65;9;15;-6;-29;-43;-51;-57;-58;-72;-55;-38;-31;-32;-41;-53;-51;-50;-34;-20;-31;-37;-28;-16;-38;-49;-37;-39;-23;-29;-26;-10;-32;-11;-3;6;41;53;34;-3;-11;-27;-67;-37;-7;6;199;505;270;-149;-50;-39;-29;-20;-31;-13;-7;-19;-2;12;-13;6;18;5;29;61;67;100;110;138;138;152;151;132;100;77;28;-6;-21;-54;-41;-49;-52;-44;-55;-47;-44;-59;-40;-33;-32;-39;-51;-34;-41;-60;-63;-60;-25;-54;-39;-21;-24;-23;-26;-35;-41;-19;16;27;25;75;1;-29;-24;-35;-34;-37;-5;91;283;343;-17;-123;-51;-24;-41;-25;2;-20;-20;6;2;-8;-9;32;36;39;45;62;83;103;141;149;157;143;181;135;85;47;4;-28;-30;-57;-81;-63;-57;-58;-60;-51;-50;-28;-41;-56;-41;-36;-30;-28;-32;-59;-65;-50;-39;-39;-63;-60;-42;-40;-52;-39;-48;-53;-27;-30;24;49;21;-50;-53;-50;-45;-40;-9;-28;109;443;323;-120;-128;-30;-59;-43;-44;-61;-40;-24;-23;-30;-21;-26;-10;1;8;16;35;54;66;80;89;88;97;104;75;45;4;-29;-48;-60;-70;-91;-71;-78;-83;-81;-67;-52;-76;-62;-56;-66;-40;-54;-57;-43;-52;-56;-64;-50;-49;-58;-57;-58;-66;-54;-59;-31;-37;-36;-12;12;24;35;-10;-40;-31;-2;-12;-60;-34;31;295;432;158;-96;-86;-51;-59;-39;-34;-32;-21;-26;-29;-3;22;9;7;5;17;34;63;79;91;105;118;129;115;98;97;30;-8;-11;-38;-71;-66;-55;-59;-60;-60;-57;-59;-48;-48;-39;-38;-35;-33;-57;-55;-41;-38;-36;-39;-46;-44;-39;-43;-41;-29;-28;-36;-40;-37;2;25;38;47;42;2;-39;-46;-34;-50;-56;-27;127;399;371;-67;-127;-43;-3;-25;-28;-28;-25;-19;-10;0;2;8;8;27;35;43;64;91;103;122;114;153;150;136;129;124;27;-3;-45;-51;-69;-81;-57;-48;-46;-44;-48;-52;-42;-61;-56;-28;-18;-27;-48;-70;-45;-34;-54;-50;-50;-47;-32;-26;-50;-31;-32;-50;-14;20;39;35;53;-3;-45;-38;-36;-31;-27;-32;105;379;318;-110;-152;-29;-23;-26;-43;0;4;0;-11;2;6;-2;6;9;40;47;61;86;94;118;128;125;142;122;119;96;28;0;-33;-61;-70;-76;-64;-67;-64;-43;-35;-66;-41;-38;-52;-48;-56;-41;-38;-57;-68;-53;-39;-71;-74;-62;-68;-74;-59;-54;-54;-20;-35;-42;14;39;42;28;7;-23;-17;-35;-39;-32;-23;53;276;306;181;-105;-68;-45;-37;-27;-54;-15;-35;-33;12;-11;-35;-5;6;9;50;51;56;80;111;136;100;103;125;123;94;49;25;-7;-28;-45;-54;-66;-67;-51;-29;-59;-45;-34;-58;-55;-52;-36;-40;-31;-14;-39;-61;-48;-27;-28;-46;-66;-48;-5;-21;-52;-13;-33;-13;4;15;55;63;35;-73;-20;-12;-48;-25;-17;39;266;479;243;-106;-61;-7;-36;-26;-22;-5;-1;-10;-13;-3;18;15;9;36;50;63;59;81;104;124;138;137;147;139;103;62;33;3;-18;-50;-55;-43;-54;-38;-39;-49;-29;-17;-38;-29;-38;-47;-37;-23;-12;-18;-30;-38;-48;-41;-26;-23;-40;-28;-22;-17;-8;-7;-2;20;53;68;29;-5;-24;-32;-39;-34;-29;16;155;401;236;-163;-100;-24;-26;-23;-34;-6;-11;-16;-17;-3;-14;4;24;22;46;56;45;82;114;111;145;165;171;156;111;61;23;-7;-59;-84;-89;-71;-63;-60;-68;-76;-58;-53;-48;-43;-45;-38;-37;-29;-38;-49;-43;-54;-48;-58;-62;-46;-39;-57;-31;-26;-32;-4;10;21;23;14;-25;-53;-56;-40;-50;-38;-12;194;440;220;-180;-77;-23;-41;-58;-43;-29;-24;-26;-16;-8;-2;14;5;18;32;43;53;86;91;110;129;136;144;100;104;39;1;-18;-45;-32;-56;-108;-85;-63;-55;-60;-75;-84;-49;-17;-52;-66;-81;-85;-61;-42;-58;-51;-47;-57;-41;-59;-77;-64;-42;-40;-49;-20;8;20;24;2;-21;-14;-51;-73;-41;-35;-22;64;387;440;11;-125;-69;-88;-44;-72;-61;-50;-40;-14;-47;-47;-41;-20;-3;0;12;26;21;49;96;102;113;114;105;68;41;5;-47;-62;-66;-90;-53;-61;-89;-80;-70;-65;-69;-60;-60;-70;-53;-40;-38;-39;-49;-60;-59;-54;-49;-23;-52;-90;-71;-52;-38;-34;-35;-23;-25;7;26;32;17;-23;-29;-23;-57;-15;-32;-22;208;526;284;-130;-79;-29;-46;-52;-47;-41;-39;-36;-22;-13;16;-6;11;6;29;56;59;87;102;126;127;137;144;128;91;66;10;-6;-37;-55;-67;-62;-48;-51;-60;-57;-56;-54;-48;-36;-17;-35;-50;-37;-36;-48;-40;-24;-41;-54;-55;-24;-39;-50;-53;-42;-48;-31;-24;-1;15;30;32;18;-29;-40;-46;-50;-28;-29;-27;155;397;176;-211;-118;-40;-31;-48;-54;-16;-28;-29;-18;-5;-19;-20;2;31;54;33;62;87;119;149;145;153;165;151;98;61;34;-21;-50;-47;-49;-47;-58;-70;-59;-50;-58;-52;-45;-48;-58;-53;-42;-49;-55;-48;-36;-27;-54;-74;-62;-52;-28;-51;-52;-31;-29;-39;-8;-23;1;16;38;37;-33;-40;-32;-26;-55;-36;7;112;442;281;-157;-143;-32;-72;-49;-28;-45;-24;-14;-15;8;-18;-2;13;10;11;37;55;77;77;102;110;123;117;113;114;66;17;-16;-38;-58;-60;-62;-54;-63;-67;-63;-54;-56;-60;-60;-58;-49;-40;-72;-49;-57;-39;-41;-61;-56;-66;-69;-52;-47;-54;-53;-61;-56;-47;-41;-45;-28;-8;-35;37;19;4;-26;-42;-21;-19;-36;-40;-21;161;480;305;-159;-74;-8;-62;-53;-45;-38;-23;-30;-8;-19;-23;-18;4;22;15;42;34;44;84;107;117;104;112;118;94;67;13;-20;-38;-32;-50;-70;-75;-78;-72;-61;-75;-72;-36;-16;-66;-65;-44;-35;-48;-45;-30;-51;-41;-38;-73;-55;-34;-11;-10;-52;-32;-8;-26;-20;-10;-35;-30;5;29;32;27;50;11;-20;-17;-25;-29;-27;8;213;493;324;-74;-81;2;-29;-23;-30;-13;-23;-11;-14;-21;-17;-8;30;34;33;44;70;93;104;118;140;150;133;126;133;74;23;21;-20;-37;-31;-21;-52;-56;-51;-54;-37;-47;-38;-35;-50;-47;-35;-51;-46;-18;-49;-43;-41;-40;-38;-11;-37;-48;-37;-67;-61;-40;-32;-35;-36;10;13;27;33;7;-32;-43;-46;-15;-22;-51;-16;164;379;158;-177;-105;-25;-46;-51;-41;-31;22;1;4;11;4;11;22;40;53;53;85;93;104;133;146;157;150;153;127;93;37;-9;-39;-51;-49;-52;-48;-44;-61;-62;-34;-60;-33;-26;-35;-60;-56;-41;-15;-47;-50;-43;-40;-45;-44;-38;-13;-37;-46;-47;-33;-2;-40;-14;18;17;48;50;36;-46;-46;-18;-28;-54;-37;59;261;575;102;-171;-83;-61;-24;-36;-36;-21;3;-13;-23;-11;6;15;11;33;36;54;110;70;86;99;129;141;119;109;82;40;35;7;-49;-82;-54;-42;-25;-57;-67;-50;-57;-42;-45;-38;-33;-18;-4;-30;-56;-58;-39;-15;-32;-39;-15;-47;-58;-54;-44;-34;-27;4;6;25;24;27;57;21;-20;-43;-4;-38;-20;-16;73;430;434;52;15;-77;-11;-19;-15;-25;-32;-35;-22;-13;-30;-6;41;0;10;34;58;70;81;85;93;95;128;106;97;75;21;8;-27;-45;-51;-44;-31;-57;-76;-68;-60;-52;-46;-62;-35;-27;-53;-33;-32;-28;-49;-69;-49;-29;-45;-72;-66;-38;-38;-58;-32;-33;-15;14;44;52;34;13;-23;-24;-6;-30;-24;-2;-11;169;498;278;-152;-86;0;-16;-34;-28;-41;-30;-12;-1;-2;19;36;20;29;33;65;81;87;84;121;123;129;141;132;111;48;14;-15;-38;-70;-63;-47;-58;-69;-55;-23;-39;-43;-42;-36;-33;-47;-47;-37;-40;-35;-37;-44;-41;-49;-46;-44;-27;-24;-36;-26;-1;-12;15;24;12;0;-36;-49;-32;-35;-42;-35;-16;117;351;289;-94;-161;-61;-39;-25;-10;-7;-19;-7;1;-6;8;17;33;25;39;61;85;99;118;129;150;156;145;142;141;94;48;8;-29;-66;-44;-46;-56;-68;-65;-38;-59;-53;-33;-5;-30;-65;-58;-47;-28;-9;-37;-69;-47;-61;-52;-43;-44;-47;-45;-51;-5;-25;-8;8;36;27;32;-15;-38;-28;-40;-53;-37;2;74;373;389;-60;-125;-60;-79;-32;-34;-36;-44;-25;-8;-26;-27;-5;4;5;32;23;42;61;68;88;108;107;114;87;92;59;15;-22;-44;-48;-62;-59;-58;-75;-62;-52;-48;-46;-42;-39;-52;-55;-30;-17;-30;-13;-49;-58;-42;-50;-50;-71;-60;-60;-42;-40;-28;-23;-5;-20;17;39;44;30;-25;-48;-10;-39;-31;-31;-8;127;461;404;-49;-48;-27;-29;-27;-25;-14;-32;-30;-13;-11;-9;-7;-2;9;22;34;53;65;88;111;141;139;112;128;114;61;23;-12;-33;-18;-48;-72;-71;-55;-46;-48;-44;-45;-44;-20;-27;-37;-31;-29;-31;-42;-27;-15;-18;-32;-28;-19;-37;-38;-38;-32;-26;-24;-12;-4;15;36;36;53;22;-11;-28;-6;-21;-15;-29;40;257;494;144;-186;-43;-39;-31;-25;-29;-19;-22;0;-6;-3;-8;4;17;19;40;67;74;89;102;124;149;139;137;122;78;51;5;-32;-40;-55;-70;-55;-66;-58;-50;-47;-51;-54;-42;-47;-57;-37;-40;-50;-68;-52;-65;-45;-51;-63;-49;-39;-49;-39;-33;-15;-33;-34;-10;6;20;49;35;18;-10;-30;-50;-51;-30;10;19;247;318;100;-184;-82;-50;-55;-21;-45;-40;-27;-19;-19;-14;-9;8;18;13;26;73;58;80;134;120;141;145;135;139;99;57;-4;-40;-31;-57;-71;-71;-63;-69;-69;-47;-21;-50;-55;-52;-31;-34;-38;-33;-32;-31;-34;-38;-27;-41;-41;-33;-37;-34;-32;-24;-21;-37;-22;-29;-16;1;16;36;31;3;-13;-29;-26;-51;-23;-36;26;273;466;142;-153;-42;-63;-21;-38;-33;-32;-34;-37;-25;-13;-13;-5;-2;12;19;32;47;51;70;89;107;102;108;108;72;45;0;-40;-45;-58;-78;-100;-90;-53;-60;-70;-78;-56;-63;-60;-78;-43;-23;-37;-59;-58;-63;-76;-67;-35;-40;-58;-54;-46;-29;-46;-63;-52;-37;-60;-50;-32;-13;26;39;63;24;-54;-31;-24;-64;-38;-55;-23;185;498;332;-97;-94;-20;-54;-45;-32;-37;-50;-33;-11;-17;-18;-1;11;-3;11;14;52;42;73;95;114;134;108;100;93;43;26;-20;-48;-40;-40;-46;-47;-63;-52;-65;-61;-56;-53;-53;-43;-51;-55;-47;-37;-35;-47;-29;-37;-28;-45;-53;-28;-53;-42;-38;-35;-55;-43;-29;-27;-39;-10;16;17;31;31;-7;-26;-31;-6;-53;-45;-34;15;213;277;139;47;-79;-22;-37;-23;-40;-41;-11;-19;-20;-18;3;32;28;13;29;33;57;106;113;103;127;132;135;139;89;44;12;-27;-36;-60;-78;-64;-42;-66;-56;-49;-38;-36;-48;-43;-22;-36;-37;-49;-55;-51;-40;-37;-41;-35;-49;-34;-2;-45;-48;-37;-30;-26;-35;-17;-11;6;25;34;59;40;-28;-17;12;-35;-48;-26;0;125;361;339;-38;-93;-27;0;-29;-19;-12;-5;6;12;-3;16;20;28;42;41;54;82;79;99;128;150;122;153;154;135;90;41;0;-10;-36;-45;-47;-27;-59;-49;-31;-33;-29;-25;-36;-39;-30;-7;-28;-26;-21;0;-15;-34;-26;-29;-52;-46;-32;-25;4;-24;-45;-30;-27;-3;-17;-23;6;3;43;42;67;56;-4;-28;-17;-37;-26;-30;0;126;487;408;-81;-76;-15;-42;-32;-50;-35;-33;-32;-27;-21;-13;-4;-3;10;14;22;53;69;80;111;105;95;99;101;95;55;29;-14;-42;-40;-37;-59;-49;-53;-40;-52;-52;-62;-83;-71;-62;-44;-34;-37;0;-33;-67;-51;-39;-49;-36;9;-9;-45;-45;-28;-15;-28;-50;-43;-36;-20;-17;-27;-29;-7;22;25;18;26;27;-11;-29;-31;-32;2;-31;-18;258;382;230;-151;-81;-97;-26;-48;-28;-13;-22;-8;-22;-6;-4;6;11;26;23;34;81;80;93;108;122;141;130;116;93;53;16;-9;-25;-50;-52;-62;-39;-38;-51;-50;-86;-69;-61;-45;-23;-22;-28;-24;-29;-33;-23;-31;-33;-14;-21;-28;-30;-23;-25;-32;-35;-51;-25;-9;-11;-10;-1;11;17;45;57;23;1;-18;-30;-23;-22;-29;-25;96;283;313;-38;-173;-46;-23;-31;-27;-21;-21;0;8;6;17;10;31;48;37;58;79;111;105;108;139;165;168;158;140;98;75;4;-32;-47;-30;-52;-67;-67;-73;-62;-41;-36;-25;-21;-14;-26;-30;-17;-32;-41;-40;-38;-50;-57;-51;-32;-31;-51;-52;-36;-28;-34;-21;-18;-10;-4;14;45;58;23;0;-41;-34;-28;-32;-26;-12;66;291;398;2;-90;-51;-53;-60;-37;-22;-38;-38;-5;0;-11;-30;1;10;13;28;38;49;88;116;112;148;142;141;92;59;34;-7;-37;-45;-59;-66;-72;-112;-96;-86;-66;-70;-67;-68;-78;-63;-71;-68;-53;-68;-81;-76;-80;-63;-76;-79;-55;-44;-38;-43;-46;-39;-55;-56;-47;-16;-11;-13;8;50;55;-10;-46;-41;-47;-20;-14;-46;65;368;403;88;-74;-56;-50;-57;-11;-29;-66;-40;-41;-23;-22;-39;-16;2;-3;3;29;22;60;75;101;95;95;78;86;66;26;-6;-54;-62;-71;-90;-87;-88;-83;-69;-63;-61;-72;-65;-80;-70;-50;-62;-59;-51;-58;-60;-53;-48;-54;-60;-67;-56;-49;-40;-37;-61;-67;-58;-57;-55;-54;-28;9;26;34;17;-5;-13;-23;-22;-39;-43;-37;48;361;448;130;11;-57;-27;-36;-47;-54;-21;-23;-30;-19;-13;-1;0;-5;26;28;47;57;73;103;124;135;121;99;103;81;49;3;-27;-36;-43;-64;-53;-56;-61;-60;-44;-53;-45;-47;-40;-23;-26;-28;-28;-31;-49;-54;-48;-12;-30;-38;-42;-35;-24;-29;-31;-31;-42;-52;-18;-7;7;-5;-16;15;51;38;-9;-35;-25;-28;-35;-17;-19;109;313;289;-38;-159;-70;-76;-56;-3;-26;-29;-11;-4;-4;-21;2;26;18;16;38;57;107;127;131;124;156;156;156;140;83;48;7;-24;-45;-64;-57;-73;-70;-53;-38;-64;-50;-44;-40;-27;-40;-22;-42;-44;-31;-49;-41;-35;-30;-42;-60;-38;-31;-37;-56;-64;-52;-63;-36;-6;-19;-24;-6;22;22;36;42;3;-50;-38;-43;-38;-12;-7;41;282;444;135;29;-76;9;-32;14;-24;-27;-22;-16;-19;-19;-4;14;-7;25;33;53;66;76;100;106;127;136;116;133;100;69;24;-15;-22;-22;-57;-50;-54;-55;-50;-36;-25;-35;-44;-32;-20;-19;-33;-40;-40;-20;-17;-28;-36;-12;-44;-68;-54;-45;-43;-29;-27;-16;-51;-55;-29;-20;-3;-16;-7;16;54;29;18;7;-15;-8;-29;-43;-19;-10;44;320;489;163;138;-21;-68;-21;-29;-39;-21;-14;-10;2;-20;-8;12;17;25;20;35;62;70;87;105;113;121;110;100;83;61;25;-22;-39;-49;-34;-25;-40;-65;-56;-33;-53;-42;-30;-28;-40;-56;-45;-38;-33;-28;-58;-53;-31;-31;-18;-38;-62;-47;-20;-37;-48;-35;-15;-25;-19;-35;-30;-14;-11;10;22;51;55;33;-13;-30;-6;-29;-7;-17;-10;214;515;322;-140;-64;4;-23;-24;-21;-7;-20;-18;-9;0;37;-11;0;29;23;42;78;95;95;121;133;145;150;116;94;63;48;-4;-35;-42;-52;-61;-68;-57;-66;-52;-35;-36;-31;-39;-37;-26;-28;-41;-49;-40;-48;-20;-35;-36;-11;-55;-62;-48;-35;-47;-55;-61;-45;-21;-4;-26;-20;2;24;39;35;-11;-12;-21;-55;-45;-31;-11;79;268;401;8;-76;-48;-33;-36;-24;-35;-27;-12;-21;-5;-11;0;15;30;33;45;66;86;96;128;153;178;185;168;144;101;52;25;-7;-31;-48;-68;-78;-70;-57;-63;-53;-48;-27;-17;-24;-32;-38;-41;-34;-38;-39;-34;-49;-48;-37;-24;-28;-45;-58;-34;-29;-35;-9;-21;-29;-20;-1;21;33;56;34;-22;-33;-36;-19;-34;-40;6;168;468;299;-156;-76;-18;-51;-30;-21;-15;-30;-12;-5;-11;-2;-3;14;23;24;45;43;70;91;87;104;116;113;114;104;43;-14;-29;-27;-62;-37;-50;-48;-55;-52;-62;-65;-29;-34;-54;-49;-51;-49;-42;-44;-50;-31;-37;-46;-46;-58;-47;-56;-50;-51;-69;-44;-42;-54;-9;-26;-24;-3;8;10;55;39;-19;-29;-24;-36;-37;-34;-2;191;505;305;-109;-72;-1;-30;-20;-36;-31;-21;-2;-10;-6;-5;13;13;24;24;37;50;84;81;95;114;148;145;108;87;65;38;14;-39;-50;-68;-56;-24;-46;-63;-52;-48;-34;-43;-39;-38;-44;-27;-32;-37;-34;-55;-45;-43;-34;-30;-41;-34;-9;-20;-27;-11;-28;-19;-10;-14;-20;-11;14;7;30;58;51;-2;-32;-28;-35;-28;-26;17;227;482;247;-143;-65;0;-17;12;-8;-13;-37;-5;-12;7;0;1;30;20;36;51;70;97;121;137;142;144;164;138;112;58;34;-20;-39;-59;-57;-58;-58;-51;-54;-61;-57;-51;-47;-47;-42;-40;-47;-64;-56;-60;-46;-45;-44;-49;-48;-53;-57;-50;-65;-76;-64;-31;-41;-36;-37;-31;12;24;32;24;-16;-45;-15;-35;-44;-39;-15;96;324;271;-55;-85;-33;-29;-40;-33;-23;-25;-26;-27;-11;8;2;1;11;27;45;65;69;95;122;142;160;142;126;134;85;27;5;-23;-51;-56;-76;-72;-67;-56;-57;-44;-55;-43;-37;-43;-51;-62;-56;-33;-36;-43;-48;-66;-42;-37;-60;-49;-40;-45;-37;-48;-45;-41;-37;-36;-31;-17;0;19;35;41;28;-15;-17;-68;-90;-19;-29;-19;234;474;212;-133;-90;0;-74;-33;-32;-39;-37;-39;-15;-17;-15;-4;0;11;30;48;33;54;78;106;103;107;101;112;75;64;8;-23;-45;-54;-66;-76;-73;-75;-86;-69;-56;-41;-43;-50;-57;-40;-49;-50;-48;-59;-46;-70;-62;-49;-54;-39;-41;-19;-34;-49;-62;-45;-40;-38;-33;-33;-25;-8;17;28;34;15;-12;-27;-28;-69;-51;-8;12;230;498;257;-132;-53;-37;-45;-36;-52;-53;-47;-28;-20;2;-2;-9;-3;9;24;55;39;46;88;118;98;93;91;114;91;38;-3;10;-37;-59;-56;-55;-46;-61;-65;-54;-52;-62;-55;-47;-32;-23;-40;-21;-27;-25;-34;-43;-34;-25;-23;-36;-48;-37;-15;-24;-33;-23;-47;-36;3;-5;6;34;38;54;46;20;-9;-19;-4;-50;-20;-1;72;333;427;69;-63;-77;-23;-7;-13;-32;-29;1;-6;-2;-2;0;0;19;43;43;50;79;99;113;112;131;142;133;111;83;41;-9;-33;-47;-68;-84;-74;-64;-82;-61;-52;-49;-40;-37;-45;-42;-54;-55;-49;-38;-52;-60;-39;-43;-45;-32;-49;-44;-41;-35;-26;-42;-49;-18;-16;-12;11;28;39;7;-24;-61;-44;-29;-60;-25;-7;177;414;178;-176;-87;-21;-18;-23;-49;-30;-5;4;-13;-8;9;33;40;18;38;75;84;87;108;139;146;148;147;135;116;64;29;-5;-33;-42;-52;-60;-64;-54;-50;-59;-77;-64;-55;-49;-33;-35;-34;-24;-26;-28;-29;-32;-55;-48;-34;-23;-24;-24;-42;-55;-36;-28;-43;-35;-12;6;20;25;52;57;27;-24;-28;-40;-47;-34;-14;40;272;418;167;-149;-64;-15;-66;-8;-54;-51;-35;-22;-32;-14;-2;-3;8;22;19;34;52;74;92;115;121;128;116;109;85;19;5;-24;-36;-29;-59;-32;-46;-54;-40;-48;-46;-47;-52;-31;-38;-47;-32;-45;-51;-39;-46;-49;-41;-49;-49;-48;-49;-47;-42;-38;-29;-25;-47;-48;-31;-21;-37;17;27;42;37;-7;-24;-34;-42;-42;-38;-34;87;420;450;51;-45;-64;-47;-24;-51;-46;-44;-29;-21;-50;-18;10;-18;1;10;22;62;54;73;100;95;128;140;126;88;60;35;-13;-27;-50;-64;-67;-63;-68;-58;-52;-52;-51;-44;-38;-29;-38;-58;-43;-37;-34;-44;-55;-40;-49;-35;-31;-38;-28;-48;-46;-28;-22;-34;-40;0;-5;8;38;60;35;-30;-60;-48;-37;-45;-32;6;128;373;295;-74;-190;-70;-29;-35;-29;-43;-52;-24;9;-8;-11;-8;8;12;-13;33;55;70;86;107;134;147;125;138;124;47;2;-25;-56;-67;-83;-90;-75;-81;-84;-63;-64;-53;-61;-68;-44;-14;-40;-53;-48;-57;-59;-49;-49;-53;-53;-74;-78;-64;-37;-45;-49;-40;-18;-30;-25;23;41;4;-22;-38;-33;-20;-70;-33;-6;38;279;432;109;-1;-86;-5;-32;-36;-20;-20;-37;-45;-20;8;-8;12;25;19;20;38;78;85;115;141;129;167;156;112;84;44;21;-43;-46;-55;-73;-71;-51;-57;-65;-54;-62;-73;-54;-35;-30;-42;-49;-45;-55;-34;-52;-62;-45;-47;-42;-48;-46;-42;-50;-58;-40;-28;-14;-27;27;63;37;-37;-33;-25;-54;-59;-32;-47;63;383;391;39;-135;-71;-86;-47;-56;-67;-48;-26;-27;-23;-20;-20;0;12;15;19;28;54;94;108;109;98;124;109;89;48;22;-2;-37;-69;-59;-74;-76;-94;-79;-39;-52;-69;-62;-53;-37;-55;-55;-50;-55;-61;-42;-62;-52;-28;-43;-61;-47;-70;-53;-41;-35;-21;20;45;42;26;-22;-41;-29;-37;-23;-8;88;398;448;112;-83;-80;-51;-31;-34;-27;-17;-18;-21;-14;-10;12;39;12;6;58;55;69;78;110;149;157;140;119;107;90;35;-4;-29;-44;-63;-54;-42;-55;-66;-56;-42;-43;-58;-43;-19;-52;-54;-40;-38;-37;-36;-25;-62;-59;-42;-50;-44;-15;-44;-2;13;40;49;7;-49;-42;1;-57;-66;-46;14;223;498;279;-138;-71;-85;-30;-27;-25;-26;-35;-25;-28;-15;-10;-9;1;10;25;53;52;66;106;114;129;133;119;109;76;24;12;-15;-50;-64;-63;-68;-92;-81;-57;-31;-62;-57;-42;-31;-40;-51;-40;-43;-56;-59;-30;-28;-38;-44;-36;-31;-58;-48;-39;-20;-8;14;26;27;40;14;-32;-39;-24;-36;-44;-30;-17;161;494;392;-120;-85;-8;-32;-12;-20;-28;-14;-8;-10;-6;25;12;37;27;31;50;86;117;120;124;149;153;151;145;187;101;30;-9;-39;-45;-51;-60;-48;-51;-59;-53;-40;-36;-43;-49;-22;-40;-37;-36;-41;-35;-36;-28;-19;-23;-57;-61;-54;-58;-11;-33;-37;-20;-18;-9;-2;5;12;-18;-36;-61;-66;-56;-56;-41;37;212;393;71;-103;-77;-58;-40;-20;-26;-34;-38;-21;1;0;5;20;37;9;25;60;78;105;120;124;153;152;141;123;94;42;11;-10;-42;-61;-60;-58;-55;-55;-54;-30;-30;-35;-31;-25;-42;-34;-54;-14;-21;-52;-31;-38;-52;-50;-34;-36;-54;-56;-40;-26;-19;13;-7;-34;7;13;38;44;22;-22;-19;-31;-15;9;-15;8;213;456;216;-168;-95;-28;-39;-42;-29;-38;-14;-12;-4;-1;-10;1;10;8;28;38;56;72;95;102;106;91;86;106;75;39;19;-20;-55;-43;-27;-33;-45;-49;-78;-47;-56;-46;-39;-44;-42;-57;-51;-36;-49;-46;-44;-51;-60;-54;-53;-51;-47;-38;-42;-46;-46;-45;-32;-14;7;2;9;8;-4;-41;-43;-38;-54;-57;-33;17;222;512;248;-169;-85;-86;-50;-30;-46;-41;-59;-46;-40;-30;-16;-25;10;0;15;20;37;54;98;93;80;104;92;82;63;29;-13;-18;-42;-58;-64;-74;-74;-68;-53;-56;-46;-55;-61;-48;-60;-58;-42;-39;-51;-66;-73;-63;-61;-56;-45;-49;-58;-50;-55;-48;-35;-14;-11;8;31;26;10;-14;-45;-65;-35;-61;-27;7;191;400;187;-195;-115;-17;-35;-48;-51;-44;-37;-16;-16;-2;-12;1;13;22;33;28;57;95;100;116;98;129;129;108;83;40;0;-14;-56;-80;-49;-51;-86;-75;-58;-69;-67;-60;-67;-55;-60;-79;-72;-62;-15;-65;-97;-70;-61;-59;-56;-79;-65;-47;-28;11;-4;23;29;13;-33;-49;-56;-57;-45;-53;-24;124;336;276;-90;-203;-57;-8;-34;-56;-48;-30;-15;-15;-21;-19;-8;14;12;14;42;62;64;88;113;122;164;141;113;81;55;13;-24;-33;-32;-64;-69;-49;-49;-45;-60;-50;-53;-62;-53;-40;-45;-36;-28;-37;-48;-52;-51;-48;-39;-46;-38;-49;-45;-42;-47;-14;25;50;58;14;-22;-34;-38;-31;-58;-37;-11;159;457;323;-83;-105;-35;-39;-37;-38;-37;-37;-33;-22;-17;-17;-23;8;18;29;5;2;68;77;88;91;88;87;82;82;42;0;-26;-16;-79;-84;-74;-59;-64;-58;-49;-64;-42;-40;-60;-56;-42;-36;-51;-55;-60;-53;-54;-55;-47;-66;-52;-44;-34;-35;-55;-26;12;15;13;48;49;-30;-36;-26;-30;-38;-47;12;204;522;349;-78;-75;-9;-29;-38;-15;-17;-27;-17;-14;0;21;10;13;12;29;43;50;93;104;110;115;128;139;116;97;52;15;-3;-23;-50;-48;-60;-65;-60;-44;-37;-38;-40;-43;-31;-41;-13;-30;-36;-39;-39;-26;2;-33;-33;-30;-24;-21;-33;-29;-32;0;6;11;27;59;38;7;-11;-32;13;-31;-25;-11;77;276;391;84;-109;-74;-24;-42;-10;-24;-1;-7;-15;-5;6;10;12;21;42;60;59;106;111;118;154;171;164;139;125;82;52;0;-47;-76;-76;-65;-53;-5;-63;-69;-44;-52;-45;-41;-38;-31;-47;-66;-45;-39;-57;-42;-29;-19;-40;-38;-40;-34;-31;-23;-7;-9;18;18;21;18;-40;-35;-57;-86;-43;-32;58;241;375;87;-8;-36;-66;-80;-54;-41;-38;-24;-10;-4;3;11;20;4;19;41;59;87;97;101;136;156;136;115;125;81;27;1;-31;-48;-52;-59;-57;-59;-64;-62;-56;-34;-31;-37;-35;-36;-44;-41;-38;-61;-49;-32;-20;-36;-34;-41;-51;-51;-45;-31;-42;-26;-12;2;35;40;40;12;-43;-47;-44;-17;-31;-33;23;304;469;145;-46;-67;-11;-32;-38;-48;-53;-30;-27;-37;-24;-20;8;-3;8;17;29;90;51;58;86;112;110;90;94;75;8;-31;-28;-56;-79;-72;-59;-62;-72;-73;-61;-55;-44;-56;-66;-71;-49;-50;-45;-51;-64;-55;-44;-56;-56;-56;-55;-54;-56;-65;-56;-34;-56;-47;-13;17;38;38;36;3;-34;-34;-31;-82;-35;-20;20;307;515;159;-184;-45;-59;-88;-7;-62;-76;-54;-22;-21;-22;-8;-4;-4;23;28;33;68;67;88;107;115;118;124;106;82;39;-13;-31;-65;-66;-65;-55;-65;-66;-65;-62;-43;-44;-35;-44;-56;-40;-56;-51;-49;-42;-31;-27;-47;-39;-44;-60;-46;-51;-43;-28;-45;-34;-36;-11;-15;24;59;33;1;-10;-28;-41;-36;-49;-38;-36;95;351;316;-78;-184;-64;-28;-26;-39;-17;-13;-9;-12;-12;2;10;13;18;53;57;69;95;121;121;153;150;168;167;124;93;34;-28;-44;-55;-60;-70;-49;-52;-82;-83;-53;-22;-43;-48;-41;-35;-42;-24;-27;-44;-48;-40;-51;-41;-38;-37;-42;-50;-49;-51;-32;-41;-36;-49;-27;-26;-7;19;39;35;16;-22;-24;-30;-19;-40;-24;20;63;363;417;56;-107;-56;6;-47;-46;-43;-34;-25;-13;-20;-12;0;2;-11;14;33;42;43;64;85;100;120;96;94;111;78;25;-6;-11;-39;-60;-57;-72;-76;-57;-44;-50;-52;-44;-43;-56;-35;-55;-47;-33;-21;-25;-44;-50;-50;-57;-36;-56;-41;-40;-60;-46;-33;-42;-24;-25;-48;-48;-8;-6;10;43;58;49;-6;-18;-22;-25;-21;-27;-13;79;399;456;115;-97;-71;-20;-19;-41;-20;-18;-6;-15;-14;6;-28;-5;12;28;28;41;63;52;89;114;117;107;114;109;88;52;0;-9;-25;-61;-59;-75;-77;-51;-53;-47;-33;-69;-38;-35;-42;-39;-31;-42;-35;-24;-31;-46;-49;-38;-36;-29;-29;-21;4;-21;-60;-43;-26;-24;-21;-14;-4;10;45;60;67;35;-18;-30;-32;-21;-21;-16;30;222;396;189;-151;-88;-23;-12;-24;-28;-26;-13;-16;20;0;-14;38;15;19;32;52;94;99;106;143;146;164;135;141;91;86;37;-21;-39;-67;-82;-86;-68;-54;-63;-62;-62;-27;-21;-37;-48;-42;-29;-40;-56;-59;-55;-49;-32;-1;-103;-80;-61;-51;-40;-33;-38;-33;-15;-40;-38;28;31;51;51;5;-26;-39;-39;-28;-30;-39;46;246;265;107;-125;-98;-56;-31;-38;-40;-22;9;-32;-43;-29;-20;12;16;16;27;47;55;67;84;119;124;107;119;117;102;27;-2;-11;-38;-56;-77;-48;-57;-75;-72;-55;-62;-59;-64;-55;-32;-43;-42;-40;-39;-31;-38;-45;-54;-60;-64;-53;-28;-62;-71;-67;-60;-47;-38;-35;-25;-11;13;36;53;17;-32;-39;-48;-42;-27;-30;-11;174;489;285;-136;-86;-1;-52;-50;-53;-35;-39;-33;-13;0;-9;-11;-3;5;5;7;44;57;57;77;105;79;96;110;90;40;24;0;-50;-51;-53;-75;-71;-76;-58;-45;-67;-51;-55;-58;-29;-20;-59;-52;-53;-41;-44;-56;-48;-39;-54;-61;-50;-54;-38;-29;-25;-19;-27;-24;-39;-12;17;55;52;29;7;-22;0;-14;-42;-29;58;304;472;196;-60;-74;-87;-44;-19;-19;-26;-21;-8;-9;-5;6;15;23;26;42;54;67;98;97;110;117;122;114;105;91;56;7;-16;-52;-67;-63;-55;-57;-80;-77;-53;-48;-58;-67;-58;-24;-38;-69;-34;-30;-45;-39;-38;-42;-46;-28;-53;-68;-8;4;-21;-35;-20;-10;16;34;38;35;0;-19;-21;-32;-39;-28;-18;98;344;326;-67;-148;-51;-57;-32;-36;-20;-11;-6;1;-3;0;7;22;27;30;47;65;93;124;124;136;154;163;158;136;87;65;27;-37;-54;-59;-50;-65;-62;-54;-48;-36;-34;-45;-29;-15;-9;-16;-20;-26;-36;-59;-63;-56;-46;-30;-13;-36;-33;-49;-34;-30;-14;-11;-9;29;48;44;33;1;-44;-43;-62;-37;-28;40;214;443;196;-175;-75;-31;-30;-28;-49;-27;-20;-16;-15;-24;0;30;0;-14;11;26;51;83;79;88;111;119;106;101;79;41;8;-37;-33;-61;-59;-62;-81;-69;-44;-42;-58;-56;-46;-37;-46;-61;-56;-51;-56;-42;-67;-62;-56;-47;-45;-46;-39;-33;-46;-58;-56;-38;-24;-17;-19;19;35;42;72;-26;-44;-36;-67;-40;-35;31;297;563;186;-189;-69;8;-31;-52;-57;-32;-3;-25;-20;0;-7;-15;4;13;22;35;48;68;86;93;107;98;111;102;66;27;-3;-31;-40;-55;-73;-70;-58;-63;-57;-55;-71;-61;-62;-48;-44;-41;-39;-36;-34;-58;-68;-55;-39;-49;-54;-40;-14;-34;-40;-39;-30;-27;-15;-41;-22;17;55;25;19;14;-6;-30;-23;-54;-39;-41;40;316;492;168;-14;-73;-31;-47;-42;-46;-15;-27;-20;-12;-1;-9;1;8;20;53;35;51;80;96;111;119;131;134;125;69;40;4;-21;-24;-46;-66;-60;-78;-57;-61;-75;-49;-48;-29;-33;-46;-53;-32;-48;-35;-45;-52;-50;-55;-56;-58;-56;-49;-39;-47;-56;-53;-40;-36;-19;12;25;48;35;-15;-40;-33;4;-14;-38;-27;24;196;230;140;7;-123;-35;-29;-43;-44;-3;5;-32;-15;-7;-1;16;17;23;39;75;76;90;129;132;146;151;142;157;121;45;0;-14;-37;-56;-74;-81;-60;-52;-61;-25;-51;-44;-32;-56;-30;-47;-41;-45;-62;-48;-28;-34;-58;-36;-40;-35;-41;-36;-42;-38;-34;-30;-29;-10;23;33;35;7;-19;13;-64;-49;-31;-38;-27;91;333;343;-3;-144;-65;-17;-17;-31;-21;-18;-24;-30;-25;3;3;-8;0;15;31;46;71;104;105;123;132;133;129;94;87;34;-18;-44;-51;-62;-59;-47;-61;-60;-57;-55;-67;-51;-43;-42;-62;-45;-62;-49;-44;-55;-53;-48;-61;-59;-57;-54;-52;-53;-54;-57;-48;-38;-44;-32;-43;-41;23;19;26;45;21;-23;-35;-41;-49;-25;-28;-6;233;487;194;-148;-78;-90;-61;-48;-54;-54;-46;-38;-30;-26;-11;-18;6;2;2;29;42;60;72;89;101;104;87;104;72;30;10;-35;-55;-60;-57;-55;-63;-72;-66;-68;-59;-43;-42;-37;-33;-42;-39;-48;-64;-50;-19;-19;-53;-29;-9;-51;-49;-24;-49;-45;-15;-24;-29;-53;-45;-32;-29;-10;-3;37;40;52;52;1;-9;-21;-12;-36;-12;-6;143;483;388;-67;-67;-25;-21;-20;-13;-13;-2;-2;-6;-16;1;13;8;23;48;56;62;69;93;126;130;131;122;129;135;74;46;6;-30;-31;-52;-61;-54;-54;-46;-43;-54;-57;-48;-32;-24;-49;-49;-35;-29;-41;-46;-18;-37;-32;-26;-26;-45;-61;-42;-35;-29;-33;-25;-14;-36;-42;-20;-18;3;36;51;53;28;0;-15;-29;-34;-41;-27;8;87;239;435;113;-84;-88;-47;-30;3;-6;-8;-4;-4;7;10;8;23;27;31;52;74;76;86;109;130;148;141;137;128;104;57;35;-7;-51;-51;-63;-73;-63;-59;-41;-40;-51;-50;-45;-60;-50;-56;-50;-49;-25;-27;-46;-37;-32;-35;-49;-39;-43;-17;7;-19;-60;-48;-42;-41;-38;-35;-50;-33;19;-39;-7;8;28;50;16;-29;-29;-34;-36;0;-22;26;242;332;198;-160;-93;-46;-35;-25;-22;-53;-29;5;-12;2;10;-1;-7;9;31;40;45;70;110;105;92;120;98;111;86;47;5;-7;-42;-55;-52;-64;-76;-69;-53;-62;-53;-42;-41;-57;-63;-36;-33;-43;-45;-37;-49;-46;-48;-50;-60;-55;-36;-42;-59;-42;-34;-35;-35;-47;-55;-63;-36;-36;-40;-37;-10;18;27;44;36;10;-20;-29;-55;-49;-22;-47;37;272;307;215;-164;-84;-46;-37;-43;-42;-36;-30;-38;-21;-12;0;0;-6;7;34;46;44;52;82;101;105;104;105;104;91;56;4;-12;-46;-55;-64;-69;-68;-85;-75;-48;-45;-49;-36;-44;-48;-41;-37;-27;-34;-42;-19;-30;-28;-16;-37;-50;-16;-27;-25;-20;-26;-33;-28;-22;-14;-8;-19;-26;-13;-6;27;44;57;39;30;-14;-31;-20;-26;-48;-18;59;233;308;173;-51;-93;-22;-28;-11;-14;-17;-14;-1;5;0;3;2;31;37;41;56;70;84;114;149;145;159;105;137;134;59;24;-36;-60;-68;-72;-80;-73;-68;-65;-55;-43;-51;-56;-44;-45;-57;-45;-30;-45;-46;-42;-48;-51;-42;-40;-58;-53;-52;-37;-26;-42;-54;-51;-50;-36;-17;-3;26;18;21;38;30;-27;-46;-66;-35;8;-41;2;183;379;201;-189;-114;-28;-41;-20;-37;-40;-40;-29;0;5;0;-7;16;27;33;45;63;87;99;137;162;151;131;123;108;64;23;-7;-41;-61;-65;-79;-74;-55;-83;-64;-51;-40;-35;-40;-32;-34;-39;-47;-59;-47;-51;-50;-37;-38;-52;-37;-22;-28;-42;-52;-56;-37;-44;-34;-27;-20;-26;-1;23;41;38;33;1;-17;-26;-29;-32;-28;-7;146;423;336;-22;-108;-32;-8;-26;-49;-39;-15;-4;-22;-14;11;4;2;7;38;63;57;53;83;110;121;113;114;127;121;74;12;-11;2;-56;-65;-61;-53;-62;-51;-46;-49;-42;-42;-55;-59;-49;-36;-21;-16;-21;-33;-46;-40;-39;-45;-38;-34;-32;-27;-21;-24;-31;-39;-38;-24;-34;-35;-29;-18;13;42;57;62;48;-17;-32;-18;-63;-22;-17;65;284;528;199;72;-59;-32;-28;-38;-41;-35;-24;1;-16;-18;-1;5;5;12;29;40;36;75;96;110;119;136;120;96;89;52;14;-18;-41;-52;-38;-37;-45;-53;-55;-30;-28;-42;-51;-48;-33;-31;-30;-46;-44;-39;-58;-37;-25;-37;-36;-34;-37;-34;-26;-35;-44;-54;-46;-36;-33;-32;-32;-2;-34;-25;0;24;40;37;37;-1;-14;-25;-28;-31;-16;10;139;436;365;-34;-123;-25;-29;-26;-39;-23;-10;9;12;4;-12;3;3;14;28;48;66;65;97;121;132;149;141;136;110;71;38;-7;-25;-44;-61;-64;-70;-58;-51;-53;-52;-49;-61;-61;-54;-26;-35;-50;-50;-55;-39;-46;-47;-51;-40;-36;-44;-52;-50;-44;-45;-44;-57;-42;-52;-26;-25;-42;-29;-3;16;22;48;38;-9;-34;-42;-45;-43;-36;-45;99;302;331;-14;-189;-74;-34;-27;-36;-12;-13;-12;-2;7;-4;4;15;26;28;16;61;79;81;111;138;144;145;137;124;105;56;0;-28;-24;-72;-88;-71;-69;-72;-56;-53;-53;-46;-50;-30;-27;-32;-41;-34;-58;-42;-51;-45;-28;-53;-44;-22;-35;-51;-42;-46;-40;-46;-38;-30;-21;-40;-26;-19;-30;-21;9;15;37;43;22;-18;-36;-23;-55;-44;-26;17;151;476;315;-160;-92;-22;-30;-15;-45;-26;-42;-34;-18;-21;-9;-6;-4;12;30;23;33;65;77;83;106;115;86;84;94;57;3;-26;-45;-56;-79;-79;-75;-75;-71;-63;-53;-53;-50;-50;-46;-59;-60;-36;-45;-39;-31;-42;-71;-51;-43;-53;-48;-46;-42;-32;-48;-55;-41;-38;-22;-33;-44;-37;-36;-29;-40;-28;-6;33;49;48;31;-12;-25;-36;-24;-38;-36;-6;136;497;419;-100;-68;-8;-57;-22;-40;-24;-31;-16;-7;-1;0;-7;12;9;29;40;58;76;89;111;124;123;117;123;108;81;36;19;-11;-22;-44;-71;-62;-46;-58;-53;-18;-44;-71;-47;-37;-37;-37;-13;-33;-61;-26;-21;-24;-16;-18;-30;-11;-8;-22;-20;-32;-23;-10;-1;-17;-28;-25;-21;-12;-5;-12;-8;31;56;43;45;17;-15;-34;-20;-52;-33;-26;14;130;402;299;-172;-134;-16;-26;-37;-37;-19;-14;-13;-19;-21;-9;7;12;15;26;56;51;68;89;117;150;141;129;142;128;78;28;-9;-22;-67;-91;-89;-68;-71;-72;-62;-62;-50;-50;-56;-52;-35;-34;-45;-61;-62;-64;-64;-57;-37;-44;-46;-48;-44;-40;-42;-46;-52;-47;-39;-37;-23;-49;-46;-28;-31;-19;4;38;35;37;0;-8;-19;-42;-43;-31;-40;74;286;454;100;-90;-53;-30;-35;-56;-52;-49;-35;-10;4;-12;-19;-13;8;-7;28;54;55;45;85;111;95;105;110;97;84;33;11;-16;-38;-63;-93;-132;-92;-77;-65;-61;-71;-61;-36;-52;-57;-36;-18;-24;-31;-40;-43;-53;-22;-65;-61;-44;-45;-40;-55;-47;-42;-33;-32;-41;-36;-36;-28;-28;-30;-29;-14;16;51;42;58;36;-5;-14;-22;-13;-9;-16;1;141;461;409;45;-48;-59;-14;-10;-20;-19;-6;-29;0;3;3;11;12;23;35;40;39;73;84;99;114;116;117;117;113;87;47;24;-12;-31;-27;-16;-43;-63;-54;-49;-35;-44;-29;-22;-13;-13;-32;-24;-15;-18;-16;-14;-17;-19;-31;-34;-26;-20;-20;-14;-6;-6;-8;-1;-2;3;-6;-10;0;1;9;18;50;72;87;53;7;-19;-3;-4;-12;-19;43;170;457;318;-82;-89;-14;-34;-7;-11;2;2;0;-6;9;20;35;49;47;56;70;76;101;123;154;98;80;91;89;85;41;2;-41;-58;-72;-106;-111;-99;-84;-78;-78;-72;-65;-68;-71;-76;-77;-73;-75;-52;-48;-40;-76;-79;-66;-65;-70;-75;-68;-68;-49;-61;-56;-41;-41;-61;-42;-52;-50;-13;0;-6;2;26;11;-18;-53;-44;-41;-70;-36;10;169;402;190;-203;-118;4;-45;-59;-61;-37;-35;-54;-26;-18;0;16;-11;0;11;32;57;76;79;88;120;131;116;109;96;68;7;-36;-55;-68;-73;-79;-96;-66;-80;-99;-74;-64;-54;-59;-63;-46;-37;-67;-66;-52;-51;-56;-63;-64;-64;-57;-74;-77;-64;-44;-52;-57;-44;-45;-55;-51;-45;-35;-40;-21;0;10;27;44;11;-46;-39;0;-37;-40;-36;5;263;453;225;-154;-72;-90;-78;-34;-44;-34;-51;-58;-46;-18;-13;-12;-6;11;23;31;47;69;81;92;107;115;102;108;80;50;21;-4;-26;-55;-59;-59;-65;-63;-70;-53;-56;-69;-68;-29;-68;-55;-52;-47;-44;-39;-31;-39;-43;-42;-49;-49;-45;-34;-24;-26;-41;-49;-46;-39;-33;-32;-26;-36;-23;-17;-20;10;32;60;66;51;-12;-19;-8;-15;-41;-31;3;104;461;472;3;-37;-37;-13;-18;-50;-24;-8;-19;-7;6;15;-5;13;21;51;44;49;90;111;109;121;140;138;148;135;100;55;10;-15;-29;-21;-45;-76;-67;-58;-48;-40;-34;-33;-43;-16;-32;-25;-22;-23;-29;-26;-19;-26;-33;-37;-28;-30;-40;-48;-32;-23;-15;-18;-19;-29;-35;-34;-20;3;3;24;52;67;52;19;4;-13;-39;-25;-14;-10;-11;166;416;253;-161;-94;-45;-31;-8;-22;-5;21;8;-8;-7;16;23;32;69;37;54;80;99;119;120;155;186;162;143;135;98;58;-1;-25;-40;-57;-68;-67;-70;-68;-72;-60;-61;-36;0;-2;-25;-37;-31;-21;-22;-59;-52;-50;-36;-53;-40;-34;-37;-55;-38;-25;-49;-34;-52;-36;-24;-34;-8;30;35;15;36;32;-7;-23;-8;-46;-44;-27;-18;127;401;378;-82;-138;-26;-64;-23;-29;-11;-3;-15;-4;-22;-4;14;8;4;45;33;44;74;107;112;119;116;150;174;131;62;35;7;-52;-64;-51;-63;-54;-70;-85;-67;-40;-40;-50;-52;-41;-29;-26;-51;-52;-56;-39;-10;-57;-66;-55;-46;-25;-28;-40;-56;-52;-56;-42;-31;-31;-24;-35;-32;-3;14;13;39;46;22;1;-31;-40;-29;-43;-42;16;181;494;297;-93;-98;-25;11;-38;-68;-44;-29;-10;-8;-13;-20;-7;-2;9;4;26;42;44;72;92;119;121;113;108;94;60;10;-17;-29;-35;-37;-52;-49;-39;-62;-72;-62;-30;-55;-52;-46;-50;-46;-46;-45;-44;-43;-44;-57;-59;-50;-50;-57;-37;-40;-31;-30;-44;-53;-38;-33;-34;-42;-31;-17;-3;8;37;54;22;14;-24;-33;-1;-8;-25;-17;37;289;324;239;-142;-58;-27;-47;-51;-22;-32;-29;-23;-8;9;16;17;16;28;36;51;60;83;112;95;123;144;142;137;95;68;40;0;-39;-52;-51;-44;-66;-70;-59;-46;-41;-63;-70;-48;-36;-37;-26;-29;-42;-40;-30;-34;-47;-35;-14;-39;-41;-33;-22;-26;-41;-48;-32;-33;-39;-32;-34;-26;-13;15;30;33;45;-26;-41;-38;-57;-53;-39;-15;87;302;319;5;-152;-75;-80;-45;-45;-23;-23;-31;-35;-32;-6;-17;2;21;28;36;43;55;86;115;124;140;145;129;134;106;46;5;-47;-57;-57;-79;-86;-98;-78;-72;-79;-70;-51;-73;-82;-54;-48;-39;-68;-70;-69;-64;-48;-54;-71;-67;-60;-46;-60;-75;-50;-52;-6;-66;-63;-29;-38;-46;-20;-7;32;49;53;10;-32;-27;-17;-42;-47;-38;18;226;442;205;-161;-85;-19;-60;-7;-44;-25;-21;-23;-17;-36;-14;-14;-1;12;15;25;36;81;94;100;126;122;107;106;106;73;28;-16;-39;-24;-63;-75;-64;-63;-68;-59;-51;-43;-56;-46;-57;-58;-46;-32;-50;-59;-49;-44;-52;-56;-51;-48;-48;-44;-33;-34;-33;-32;-24;-40;-46;-42;-37;-17;-20;-25;-22;20;30;38;37;-4;-17;-22;-40;-27;-59;-49;102;447;488;36;-40;-49;-74;-31;-46;-41;-34;-22;-18;-39;-15;-7;1;7;27;14;36;57;67;83;102;103;112;108;82;70;32;0;-23;-44;-61;-61;-60;-72;-64;-62;-61;-46;-49;-28;-17;-41;-60;-52;-57;-49;-43;-47;-43;-39;-40;-48;-35;-31;-49;-60;-63;-44;-31;-34;-24;-17;-10;0;-21;-49;-7;11;22;53;55;49;0;-16;-11;-10;-13;-17;9;117;418;456;37;-97;-17;-52;-32;2;-16;-19;-18;-7;8;1;-5;8;30;28;55;70;89;108;105;137;144;136;138;133;102;45;14;-34;-52;-52;-65;-66;-61;-70;-54;-55;-45;-51;-50;-59;-54;-51;-53;-43;-33;-43;-56;-38;-36;-45;-53;-62;-54;-44;-39;-41;-48;-44;-56;-46;-20;-26;-50;-27;-4;25;35;27;10;-25;-33;-39;-49;-40;-23;5;114;390;271;-161;-112;-36;-43;-52;-44;-28;-32;-18;-17;-34;-13;-4;-4;15;27;56;65;76;87;118;138;154;151;141;133;82;44;-9;-36;-48;-62;-66;-68;-59;-65;-71;-58;-58;-46;-24;-48;-50;-40;-50;-46;-45;-53;-55;-54;-50;-50;-41;-28;-41;-60;-48;-51;-47;-39;-39;-39;-32;-28;-32;-28;-7;2;28;48;14;-26;-46;-29;-43;-37;-25;24;189;493;289;-166;-71;-5;-45;-40;-44;-11;-19;-18;-14;-35;-32;0;27;20;13;35;44;49;74;101;110;116;117;121;100;65;11;-2;-44;-57;-72;-77;-68;-62;-60;-60;-59;-50;-38;-43;-42;-45;-26;-28;-52;-53;-44;-27;-39;-53;-65;-57;-47;-52;-18;-28;-26;-47;-38;-33;-33;-38;-33;-11;-38;-19;31;37;74;38;-2;-20;-44;-24;-31;-28;-2;131;474;401;3;-19;-33;-21;-34;-37;-34;-28;-22;-24;-10;-10;0;1;-3;18;28;40;76;80;97;95;116;118;116;104;64;28;-17;-30;-41;-40;-52;-61;-81;-62;-55;-46;-45;-41;-48;-33;-30;-42;-40;-45;-55;-63;-61;-27;-28;-41;-42;-42;-47;-40;-34;-41;-36;-31;-32;-31;-24;-30;-17;0;0;17;45;50;37;9;-26;-24;-3;-33;-28;-17;85;296;484;136;-105;-60;45;-34;-53;-21;-23;-9;-1;-11;-8;-8;0;19;28;50;77;74;103;136;127;136;177;156;142;109;79;24;-10;-27;-53;-61;-66;-70;-64;-53;-49;-51;-43;-43;-42;-42;-66;-57;-34;-52;-53;-43;-40;-38;-53;-59;-46;-48;-11;-15;-28;-31;-36;-25;-47;-27;-16;0;23;33;42;3;-33;-40;-39;-43;-29;-36;23;216;164;164;-146;-112;-104;-68;-29;-43;-27;-11;-16;-26;10;-9;5;19;12;27;46;71;89;118;137;122;144;141;138;114;59;22;-9;-31;-57;-56;-54;-60;-65;-62;-57;-62;-51;-41;-38;-51;-36;-45;-52;-45;-54;-61;-55;-27;-27;-36;-39;-35;-25;-25;-40;-32;-40;-53;-51;-33;-48;-33;1;12;39;36;6;-27;-43;-32;-34;-51;-18;48;308;473;141;-171;-76;-79;-40;-51;-47;-31;-40;-27;-10;5;-18;1;-1;18;34;48;52;46;69;106;105;110;114;107;98;54;9;-28;-42;-63;-58;-57;-64;-58;-57;-66;-62;-64;-58;-64;-81;-81;-72;-63;-67;-78;-78;-58;-64;-67;-73;-72;-47;-84;-69;-43;-48;-72;-53;-43;-49;-45;-37;-17;10;15;42;24;-11;-33;-70;-51;-41;-59;-22;84;378;502;85;-89;-68;-100;-56;-66;-37;-39;-38;-32;-32;-27;-34;-21;4;2;9;24;20;55;71;99;112;105;105;86;67;9;-22;-37;-74;-73;-72;-67;-65;-71;-73;-74;-72;-67;-56;-72;-69;-59;-56;-53;-54;-47;-45;-53;-46;-47;-41;-34;-37;-31;-30;-58;-45;-43;-36;-25;-40;-38;-42;-15;28;13;38;49;31;-2;-27;-37;-24;1;-19;10;169;471;325;-147;-92;-19;-52;-13;-4;-3;-10;-6;-9;-7;-5;10;25;40;47;68;74;109;119;131;164;179;151;137;133;99;72;6;-33;-51;-54;-54;-56;-42;-49;-65;-44;-48;-45;-34;-22;-30;-46;-31;-8;-62;-62;-39;-28;-17;-25;-32;-40;-53;-60;-41;-37;-39;-24;-30;-6;-20;-9;16;42;64;39;10;-23;-21;-4;-32;-20;-8;13;187;437;259;-169;-73;-15;-40;-37;-30;7;-25;-11;12;21;12;0;15;33;48;61;79;102;114;126;154;183;158;143;123;94;29;-1;-22;-35;-58;-65;-53;-48;-44;-53;-43;-48;-55;-52;-48;-33;-31;-20;-23;-38;-51;-50;-43;-32;-44;-44;-41;-42;-44;-37;-31;-35;-37;-37;-19;-12;9;6;14;62;57;43;1;-32;-25;-7;-30;-23;-48;87;397;459;56;-93;-46;-71;-44;-17;-36;-35;-5;20;-14;-18;-9;6;49;20;45;70;74;69;95;119;144;153;121;123;90;78;-5;-25;-33;-35;-36;-60;-50;-36;-51;-56;-51;-31;-34;-17;-54;-36;-15;-14;-25;-26;-35;-13;0;-37;-36;-23;-20;-12;-32;-37;-27;-17;-17;-22;-10;13;0;44;55;48;46;11;-15;-19;-35;-17;-11;-22;77;382;522;149;-140;-36;-23;-19;-9;-18;-33;-9;-4;7;2;1;12;27;47;51;67;79;73;100;132;138;143;140;134;72;48;6;-37;-43;-22;-43;-67;-65;-59;-52;-48;-37;-32;-45;-40;-18;-26;-31;-22;-47;-39;-19;-56;-43;-29;-24;-30;-36;-38;-38;-20;-19;-21;-24;-28;-1;1;37;41;50;11;-20;-27;-38;-56;-33;-24;23;215;229;149;-188;-97;-29;-57;-53;-47;-32;-24;-17;-21;-6;3;10;15;13;33;58;68;93;108;125;151;173;154;135;110;50;12;-18;-63;-80;-79;-87;-99;-93;-87;-81;-68;-66;-55;-59;-64;-47;-68;-57;-50;-44;-35;-36;-36;-39;-45;-52;-62;-57;-60;-63;-57;-37;-38;-43;-33;-29;-2;9;32;25;6;-5;-37;-63;-52;-68;-41;3;227;390;168;-184;-85;0;-44;-54;-44;-41;-33;-33;-21;5;-6;-12;0;7;37;33;52;52;81;137;95;97;112;124;106;57;22;-16;-41;-59;-80;-69;-68;-70;-69;-67;-62;-60;-28;-39;-48;-40;-38;-48;-50;-50;-47;-34;-55;-43;-37;-39;-36;-49;-46;-54;-56;-52;-52;-43;-54;-47;-22;-23;-18;-34;4;41;41;0;-7;-30;-51;-63;-45;-16;47;360;466;124;5;-60;-53;-42;-43;-37;-37;-45;-23;-11;-15;-12;-14;2;18;11;24;40;63;111;86;89;120;122;107;66;48;14;-18;-47;-68;-67;-75;-76;-72;-71;-72;-74;-73;-62;-34;-39;-53;-51;-44;-33;-53;-61;-52;-51;-50;-49;-47;-49;-49;-54;-61;-51;-51;-43;-47;-45;-21;-32;-20;-43;-4;20;42;48;38;39;-33;-31;-40;-32;-19;2;195;510;352;-88;-72;-18;-25;-18;-54;-29;-1;-8;-7;10;8;8;37;32;24;52;83;85;103;115;123;155;148;143;149;103;49;23;-28;-33;-34;-27;-42;-56;-38;-30;-36;-37;-32;-18;-18;-16;-31;-36;-20;-20;-18;-7;3;-21;-27;-21;-16;-19;-40;-23;-17;-11;-16;-20;-9;-14;-19;0;33;37;56;48;27;3;-27;-18;-15;-27;-33;-5;120;407;276;-153;-153;-20;5;-32;-53;-23;-16;-12;-1;1;-2;9;10;20;38;57;73;90;102;119;145;154;153;152;119;98;49;14;-25;-48;-63;-68;-70;-63;-54;-55;-55;-42;-65;-45;-31;-38;-56;-36;-35;-46;-53;-48;-47;-38;-48;-42;-42;-50;-56;-49;-43;-29;-19;-56;-39;-25;-21;-13;15;31;45;47;26;-10;-37;-61;-28;-14;-25;2;166;470;316;-149;-77;-9;-12;-25;-33;-10;-11;-18;0;0;0;6;20;17;32;52;64;66;80;113;140;133;133;128;112;78;39;13;-12;-47;-47;-45;-52;-62;-54;-62;-40;-43;-39;-58;-43;-16;-54;-53;-33;-49;-43;-34;-22;-12;-60;-53;-37;-40;-41;-29;-21;-33;-51;-50;-52;-42;-26;-15;21;21;46;48;18;-18;-41;-30;-6;-48;-24;64;311;507;179;-194;-43;-38;-45;-54;-43;-36;-15;-19;-10;5;0;11;26;14;24;36;55;85;88;96;121;102;117;120;86;57;31;-11;-37;-36;-41;-60;-64;-60;-45;-45;-32;-43;-34;-47;-28;-34;-32;-31;-24;-35;-22;-31;-58;-54;-44;-27;-27;-39;-40;-40;-24;-20;-16;-32;-25;8;38;35;46;43;16;0;-24;-17;-59;-21;-14;63;287;556;112;-77;-68;-42;-49;-49;-40;-36;-21;-4;5;6;14;22;33;29;36;49;70;87;100;127;124;154;109;113;97;37;7;-20;-65;-92;-72;-78;-84;-81;-73;-79;-78;-67;-57;-73;-70;-60;-67;-83;-76;-48;-73;-69;-78;-77;-65;-72;-72;-67;-74;-79;-85;-66;-35;-15;-49;-32;-18;-24;-45;-84;-87;-89;-87;-78;-38;12;275;311;-74;-180;-102;-78;-93;-95;-85;-75;-92;-77;-69;-54;-37;-39;-40;-29;-19;6;28;51;61;74;83;91;84;73;46;-15;-45;-67;-75;-103;-115;-112;-108;-106;-99;-90;-93;-91;-86;-77;-84;-89;-78;-86;-102;-90;-77;-79;-95;-78;-70;-78;-81;-93;-94;-96;-75;-63;-67;-50;-33;-11;10;2;-22;-50;-58;-37;-63;-61;-42;49;352;418;65;-115;-93;-46;-79;-65;-69;-65;-60;-49;-47;-42;-29;-20;0;-8;16;17;30;46;59;81;84;89;84;102;70;19;-12;-48;-65;-77;-103;-79;-68;-65;-51;-68;-84;-60;-60;-51;-41;-41;-45;-57;-63;-49;-39;-49;-40;-37;-34;-27;-27;-40;-49;-49;-36;-35;-50;-31;-15;-12;0;24;40;19;-12;-23;-27;-55;-39;-24;5;229;508;299;-93;-58;-26;-36;-25;-38;-38;-19;-6;-4;-2;5;12;30;25;42;65;56;79;102;113;143;141;145;142;111;93;32;6;-23;-30;-23;-32;-33;-51;-33;-52;-47;-37;-29;-14;-16;-16;-21;-32;-43;-29;-25;-17;-9;-28;-26;-20;-22;-44;-23;-19;-19;-26;-17;-11;11;-3;39;58;68;43;0;-2;-12;-13;-24;-16;-16;133;407;290;-75;-87;-39;-21;-13;-21;-12;-6;-1;6;7;3;18;30;38;48;62;88;98;126;145;145;171;174;130;132;132;36;7;-11;-54;-62;-64;-56;-59;-61;-62;-71;-42;-22;-34;-39;-26;-34;-49;-58;-48;-39;-16;-43;-49;-58;-69;-66;-62;-55;-46;-35;-47;-38;-34;-46;4;-11;36;42;24;-9;-47;-37;-31;-43;-40;-12;152;408;293;-90;-102;-37;-36;-38;-44;-14;-6;-23;-17;-24;-14;7;8;15;1;21;44;40;91;104;120;123;130;119;112;62;18;-11;-28;-49;-68;-72;-62;-59;-66;-64;-59;-61;-62;-51;-55;-54;-41;-34;-51;-45;-52;-41;-49;-55;-57;-49;-35;-34;-44;-36;-35;-49;-39;-41;-53;-32;-19;-3;-4;24;70;30;-8;-28;-30;-39;-49;-37;-20;147;511;409;-87;-84;-18;-33;-41;-28;2;16;3;-6;